0-group 1-eemit(erg/ccm/s) 2-eabs(1/cm) 3-escat(1/cm) 4-aemit(erg/ccm/s) 5-aabs(1/cm) 6-ascat(1/cm) 7-hemit(erg/ccm/s) 8-habs(1/cm) 9-hscat(1/cm)
0	7.79278665839e+28	0.000296851874564	5.06874314123e-08	4.77160275814e+25	0.0102004740469	5.06874314123e-08	5.98018185868e+28	0.000463638226066	5.06874314123e-08
1	4.0847927039e+28	0.000271719720599	2.19850140116e-07	2.64132896285e+25	0.0100055967003	2.19850140116e-07	3.17424389315e+28	0.00043285160137	2.19850140116e-07
2	5.57486426114e+28	0.000268237556098	2.58499489517e-07	3.63182815844e+25	0.00999238197643	2.58499489517e-07	4.33917082768e+28	0.000428899625697	2.58499489517e-07
3	7.60263079989e+28	0.000264596038944	3.03943340885e-07	4.99154897314e+25	0.00997822193894	3.03943340885e-07	5.92734043937e+28	0.000424754814644	3.03943340885e-07
4	1.03594907503e+29	0.000260790639696	3.5737615823e-07	6.85704308648e+25	0.00996305107855	3.5737615823e-07	8.09057285612e+28	0.000420410566232	3.5737615823e-07
5	1.41038024716e+29	0.000256817118108	4.20202390681e-07	9.41483878228e+25	0.00994679983948	4.20202390681e-07	1.1034261848e+29	0.000415860482225	4.20202390681e-07
6	1.91837940179e+29	0.000252671591949	4.94073387571e-07	1.29194775555e+26	0.00992939444207	4.94073387571e-07	1.50358815654e+29	0.000411098438993	4.94073387571e-07
7	2.60680862632e+29	0.000248350609731	5.80930803156e-07	1.77179374584e+26	0.00991075670521	5.80930803156e-07	2.04697087963e+29	0.000406118663098	5.80930803156e-07
8	3.53862623229e+29	0.000243851227313	6.8305763181e-07	2.42826457796e+26	0.00989080387067	6.8305763181e-07	2.78397696718e+29	0.000400915811617	6.8305763181e-07
9	4.79826521835e+29	0.000239171088359	8.03138215154e-07	3.32560150438e+26	0.00986944843131	8.03138215154e-07	3.78236345111e+29	0.000395485057244	8.03138215154e-07
10	6.49874424978e+29	0.000234308508635	9.44328798335e-07	4.5510397103e+26	0.00984659796614	9.44328798335e-07	5.13304722378e+29	0.000389822178187	9.44328798335e-07
11	8.79104173872e+29	0.000229262564096	1.11034049002e-06	6.22286057523e+26	0.00982215498532	1.11034049002e-06	6.95777785234e+29	0.000383923652865	1.11034049002e-06
12	1.1876414555e+30	0.000224033182661	1.30553680661e-06	8.50117899058e+26	0.00979601678892	1.30553680661e-06	9.41924587025e+29	0.000377786759274	1.30553680661e-06
13	1.60225319969e+30	0.000218621239484	1.53504836466e-06	1.16023545648e+27	0.00976807534377	1.53504836466e-06	1.27343533663e+30	0.000371409678852	1.53504836466e-06
14	2.15829650675e+30	0.000213013204517	1.80490773597e-06	1.58178711572e+27	0.00973802536416	1.80490773597e-06	1.71901381592e+30	0.000364761208271	1.80490773597e-06
15	2.90275421236e+30	0.000207223929571	2.1222080101e-06	2.15404141849e+27	0.0097058890887	2.1222080101e-06	2.31691133875e+30	0.000357864414733	2.1222080101e-06
16	3.89757755208e+30	0.000201260542922	2.49528923189e-06	2.92971738866e+27	0.00967157894079	2.49528923189e-06	3.11767490761e+30	0.000350726246792	2.49528923189e-06
17	5.22424025664e+30	0.000195128749551	2.9339576145e-06	3.9794486637e+27	0.009635035546	2.9339576145e-06	4.18791903147e+30	0.000343349558158	2.9339576145e-06
18	6.98959141017e+30	0.000188835728327	3.44974328974e-06	5.39754446274e+27	0.00959606671873	3.44974328974e-06	5.61517774636e+30	0.000335738684704	3.44974328974e-06
19	9.33329379443e+30	0.000182390237476	4.0562033706e-06	7.30962870606e+27	0.00955453635357	4.0562033706e-06	7.51406830802e+30	0.000327899562176	4.0562033706e-06
20	1.24372579587e+31	0.000175802717411	4.76927829169e-06	9.88248043711e+27	0.00951030825963	4.76927829169e-06	1.00341001715e+31	0.00031983984085	4.76927829169e-06
21	1.65375370926e+31	0.000169085389048	5.6077107939e-06	1.33367338381e+28	0.00946323935445	5.6077107939e-06	1.33694968575e+31	0.00031156899473	5.6077107939e-06
22	2.19392312109e+31	0.000162252345495	6.59353856596e-06	1.79631506787e+28	0.00941318296571	6.59353856596e-06	1.7771449904e+31	0.000303098422487	6.59353856596e-06
23	2.90350400856e+31	0.000155319634704	7.75267349167e-06	2.41433015089e+28	0.00935998995087	7.75267349167e-06	2.35632687192e+31	0.000294441536929	7.75267349167e-06
24	3.83282024938e+31	0.000148305330479	9.11558272802e-06	3.23756222621e+28	0.0093035097015	9.11558272802e-06	3.11589188571e+31	0.000285613839394	9.11558272802e-06
25	5.04483135806e+31	0.000141195016818	1.07180895159e-05	4.3303800006e+28	0.00924271549096	1.07180895159e-05	4.10742497415e+31	0.000276557620878	1.07180895159e-05
26	6.6211145684e+31	0.000134041185708	1.26023147723e-05	5.77626734571e+28	0.00917774326017	1.26023147723e-05	5.39766984279e+31	0.000267355312408	1.26023147723e-05
27	8.66417882034e+31	0.000126872952119	1.48177842127e-05	7.68266954139e+28	0.00910893814707	1.48177842127e-05	7.0700125006e+31	0.000258039010625	1.48177842127e-05
28	1.1302655093e+32	0.000119717223821	1.74227301049e-05	1.01863918712e+29	0.00903615231564	1.74227301049e-05	9.22822222755e+31	0.000248633123758	1.74227301049e-05
29	1.46973623732e+32	0.000112603046042	2.04856218684e-05	1.34605857405e+29	0.00895924429983	2.04856218684e-05	1.20005278541e+32	0.000239164184038	2.04856218684e-05
30	1.90440330937e+32	0.00010553689121	2.40869657514e-05	1.77219360177e+29	0.00887777086738	2.40869657514e-05	1.55399984314e+32	0.000229602708574	2.40869657514e-05
31	2.458835922e+32	9.85620253505e-05	2.83214208892e-05	2.32402554145e+29	0.00879170361343	2.83214208892e-05	2.00346141143e+32	0.000219998891454	2.83214208892e-05
32	3.16371298061e+32	9.17301123575e-05	3.33002873613e-05	3.03478481908e+29	0.00870113354344	3.33002873613e-05	2.57119671855e+32	0.00021042256454	3.33002873613e-05
33	4.05637035639e+32	8.50721327175e-05	3.91544316467e-05	3.94478321006e+29	0.00860589731941	3.91544316467e-05	3.283591379e+32	0.000200892122607	3.91544316467e-05
34	5.18118838311e+32	7.85984683281e-05	4.60377263698e-05	5.10211875018e+29	0.00850554766764	4.60377263698e-05	4.16970413062e+32	0.000191366802856	4.60377263698e-05
35	6.59624404444e+32	7.23796573379e-05	5.41310947487e-05	6.56276263485e+29	0.0083989779326	5.41310947487e-05	5.26485443876e+32	0.000181951436816	5.41310947487e-05
36	8.37086398632e+32	6.64393467562e-05	6.36472660522e-05	8.39262906082e+29	0.00828714225793	6.36472660522e-05	6.60537368727e+32	0.000172633000502	6.36472660522e-05
37	1.05965056017e+33	6.08349540599e-05	7.4836367059e-05	1.06660501527e+30	0.0081703347864	7.4836367059e-05	8.23234975499e+32	0.000163481390228	7.4836367059e-05
38	1.33890157845e+33	5.56000050864e-05	8.79924964883e-05	1.34644061351e+30	0.00804849219838	8.79924964883e-05	1.01850494803e+33	0.000154497572653	8.79924964883e-05
39	1.69095324702e+33	5.07918126927e-05	0.000103461455206	1.68745265911e+30	0.00792186221737	0.000103461455206	1.25045780057e+33	0.000145746639083	0.000103461455206
40	2.13730115618e+33	4.64369939498e-05	0.00012164983539	2.09792018361e+30	0.0077886884885	0.00012164983539	1.52184657435e+33	0.000137188343316	0.00012164983539
41	2.71038742467e+33	4.25957652977e-05	0.000143035707558	2.58635962817e+30	0.00765083726425	0.000143035707558	1.83527983687e+33	0.000128893100257	0.000143035707558
42	3.45886053216e+33	3.93192556095e-05	0.000168181186361	3.1598450928e+30	0.00750879874048	0.000168181186361	2.19174809594e+33	0.000120896155768	0.000168181186361
43	4.45706905176e+33	3.66487720294e-05	0.000197747205428	3.82255284396e+30	0.00736174614332	0.000197747205428	2.58921663834e+33	0.00011318249117	0.000197747205428
44	5.82401319219e+33	3.46394561275e-05	0.000232510889598	4.57577195688e+30	0.00721066918441	0.000232510889598	3.02362581587e+33	0.000105778918629	0.000232510889598
45	7.75111365379e+33	3.33466742527e-05	0.000273385981181	5.41610648958e+30	0.00705656635043	0.000273385981181	3.48773680189e+33	9.87330172426e-05	0.000273385981181
46	1.05469375736e+34	3.28213081149e-05	0.000321446857115	6.3329118955e+30	0.00689913683534	0.000321446857115	3.96905500369e+33	9.20204192865e-05	0.000321446857115
47	1.47167631813e+34	3.31271997144e-05	0.000377956768313	7.30960745386e+30	0.00674020273549	0.000377956768313	4.4532936825e+33	8.5683107824e-05	0.000377956768313
48	2.10824111318e+34	3.43271749599e-05	0.000444401043443	8.3201551743e+30	0.00658031167991	0.000444401043443	4.92104563034e+33	7.97192013124e-05	0.000444401043443
49	3.0983465878e+34	3.64918996324e-05	0.000522526129893	9.33020924574e+30	0.00642062693358	0.000522526129893	5.3497888742e+33	7.41263372577e-05	0.000522526129893
50	4.6602102324e+34	3.97031782529e-05	0.000614385498075	1.0298044096e+31	0.00626283316899	0.000614385498075	5.71617155597e+33	6.89128195986e-05	0.000614385498075
51	7.14820059246e+34	4.40530776328e-05	0.000722393615649	1.11753054977e+31	0.00610846970931	0.000722393615649	5.99382094018e+33	6.40473734876e-05	0.000722393615649
52	1.11378070132e+35	4.96533134165e-05	0.000849389410339	1.1910633064e+31	0.00595946205606	0.000849389410339	6.15718910062e+33	5.94933641654e-05	0.000849389410339
53	1.75629274384e+35	5.66406111531e-05	0.000998710889421	1.24534672323e+31	0.00581797616919	0.000998710889421	6.18336578455e+33	5.52021063379e-05	0.000998710889421
54	2.79387398723e+35	6.51839313428e-05	0.00117428287721	1.27595504948e+31	0.00568670327835	0.00117428287721	6.05823519359e+33	5.11424314029e-05	0.00117428287721
55	4.47220042968e+35	7.5489872165e-05	0.0013807201767	1.27956341059e+31	0.00556864042056	0.0013807201767	5.77681634485e+33	4.72749873586e-05	0.0013807201767
56	7.18959727424e+35	8.78119925995e-05	0.00162344886683	1.2544574163e+31	0.00546731317879	0.00162344886683	5.34878781379e+33	4.35812934527e-05	0.00162344886683
57	1.15918075757e+36	0.000102461292963	0.00190884892369	1.20084579234e+31	0.00538672823517	0.00190884892369	4.79814040152e+33	4.00555755724e-05	0.00190884892369
58	1.87257376946e+36	0.000119821649936	0.00224442191431	1.12099475732e+31	0.00533147764156	0.00224442191431	4.16302389031e+33	3.67202646937e-05	0.00224442191431
59	3.02887965814e+36	0.0001403734202	0.00263898817079	1.01908663325e+31	0.00530674714998	0.00263898817079	3.48882233787e+33	3.36080485448e-05	0.00263898817079
60	4.90334021933e+36	0.00016473544146	0.00310291862735	9.00844141185e+30	0.00531836889685	0.00310291862735	2.81847049545e+33	3.07254339176e-05	0.00310291862735
61	7.94233321589e+36	0.000193748777764	0.00364840741408	7.72982789364e+30	0.0053730036257	0.00364840741408	2.18860058334e+33	2.80556222359e-05	0.00364840741408
62	1.2869813147e+37	0.000228659950699	0.00428979237218	6.42544798244e+30	0.00547836034957	0.00428979237218	1.62841574799e+33	2.55827807251e-05	0.00428979237218
63	2.08597337749e+37	0.000271558663201	0.00504393191544	5.16205541319e+30	0.00564321937502	0.00504393191544	1.15696717262e+33	2.32925535874e-05	0.00504393191544
64	3.38146694601e+37	0.000326499840904	0.00593064814339	3.99664998737e+30	0.00587798267892	0.00593064814339	7.82021783024e+32	2.11731482415e-05	0.00593064814339
65	5.48132514436e+37	0.000402551666552	0.00697324785313	2.97198302937e+30	0.00619482294132	0.00697324785313	5.00849392241e+32	1.92142450525e-05	0.00697324785313
66	8.88170073653e+37	0.00052250724955	0.00819913514435	2.1140481988e+30	0.00660785015453	0.00819913514435	3.02612200324e+32	1.74060470521e-05	0.00819913514435
67	1.43735363826e+38	0.000748972748046	0.00964053171939	1.43165824748e+30	0.00713355665463	0.00964053171939	1.71671338734e+32	1.57394496707e-05	0.00964053171939
68	2.31788012942e+38	0.00126601708597	0.0113353238112	9.18003395693e+29	0.00779124537753	0.0113353238112	9.09729436232e+31	1.42059255765e-05	0.0113353238112
69	3.70026995543e+38	0.00265338672573	0.0133280579997	5.53917580589e+29	0.00860352963403	0.0133280579997	4.47840624378e+31	1.27975675507e-05	0.0133280579997
70	5.73542217525e+38	0.00677474926289	0.0156711120919	3.12363884989e+29	0.00959689766095	0.0156711120919	2.03586820731e+31	1.15073435505e-05	0.0156711120919
71	8.16558235096e+38	0.0191213031915	0.0184260718405	1.63390491366e+29	0.0108022788776	0.0184260718405	8.49277713447e+30	1.03295234197e-05	0.0184260718405
72	9.40217225486e+38	0.0503326068226	0.0216653496881	7.86319086264e+28	0.0122554007448	0.0216653496881	3.22946797518e+30	9.25957370668e-06	0.0216653496881
73	7.4406508259e+38	0.10260569537	0.025474088084	3.45100424153e+28	0.0139967474793	0.025474088084	1.11133474823e+30	8.2918118878e-06	0.025474088084
74	3.9125946898e+38	0.155799707899	0.029952397402	1.36824723962e+28	0.0160721246663	0.029952397402	3.43231270836e+29	7.41672044401e-06	0.029952397402
75	1.53567083777e+38	0.19876322394	0.0352179872807	4.85210503325e+27	0.0185350298725	0.0352179872807	9.42609728446e+28	6.62378610701e-06	0.0352179872807
76	4.98905260064e+37	0.238090779826	0.0414092605494	1.52296771734e+27	0.0214488612557	0.0414092605494	2.27923808776e+28	5.90487460779e-06	0.0414092605494
77	1.3911676672e+37	0.280470517568	0.0486889510632	4.18429342699e+26	0.0248881326325	0.0486889510632	4.80173137788e+27	5.25378910921e-06	0.0486889510632
78	3.3358654544e+36	0.329174639252	0.0572484010624	9.94452157161e+25	0.0289398644204	0.0572484010624	8.71478019153e+26	4.6652141529e-06	0.0572484010624
79	6.81587498828e+35	0.386057139483	0.0673125904879	2.0187399108e+25	0.0337055041055	0.0673125904879	1.34609870201e+26	4.13426693417e-06	0.0673125904879
