0-group 1-eemit(erg/ccm/s) 2-eabs(1/cm) 3-escat(1/cm) 4-aemit(erg/ccm/s) 5-aabs(1/cm) 6-ascat(1/cm) 7-hemit(erg/ccm/s) 8-habs(1/cm) 9-hscat(1/cm)
0	2.13323348748e+28	8.1260066953e-05	4.61785629902e-08	5.89415880218e+23	0.0183196668431	4.61785629902e-08	1.67354147316e+28	0.000130356744679	4.61785629902e-08
1	1.10658976114e+28	7.36087501047e-05	2.00293509867e-07	3.25993705136e+23	0.0180236220776	2.00293509867e-07	8.80687587666e+27	0.000120893877287	2.00293509867e-07
2	1.50802101447e+28	7.25578329819e-05	2.35504830823e-07	4.48155565305e+23	0.0180159109565	2.35504830823e-07	1.20239352569e+28	0.000119709839223	2.35504830823e-07
3	2.05333208057e+28	7.1461185523e-05	2.76906253117e-07	6.15805078642e+23	0.0180076035961	2.76906253117e-07	1.64031275803e+28	0.000118471091225	2.76906253117e-07
4	2.79331453791e+28	7.03177523204e-05	3.2558598797e-07	8.45737599889e+23	0.0179986629582	3.2558598797e-07	2.23583643303e+28	0.000117176128419	3.2558598797e-07
5	3.79634477524e+28	6.91265527974e-05	3.82823552625e-07	1.16087997597e+24	0.0179890420439	3.82823552625e-07	3.04483087257e+28	0.000115823477338	3.82823552625e-07
6	5.154322035e+28	6.78867341447e-05	4.5012340168e-07	1.592495325e+24	0.0179786906454	4.5012340168e-07	4.1425819038e+28	0.00011441178497	4.5012340168e-07
7	6.99054524581e+28	6.65975929379e-05	5.29254470763e-07	2.18316395472e+24	0.017967555171	5.29254470763e-07	5.6303746471e+28	0.000112939843013	5.29254470763e-07
8	9.47013434145e+28	6.52585974893e-05	6.22296671929e-07	2.99080593517e+24	0.0179555784667	6.22296671929e-07	7.64422753342e+28	0.000111406613269	6.22296671929e-07
9	1.28137781221e+29	6.38694108549e-05	7.31695562883e-07	4.09409762664e+24	0.0179426996356	7.31695562883e-07	1.03664530029e+29	0.000109811254115	7.31695562883e-07
10	1.73158140946e+29	6.24299144107e-05	8.60326626983e-07	5.59974800069e+24	0.017928853858	8.60326626983e-07	1.40409129771e+29	0.000108153147987	8.60326626983e-07
11	2.33679256902e+29	6.09402318977e-05	1.01157085356e-06	7.65224802346e+24	0.0179139722129	1.01157085356e-06	1.89930835615e+29	0.000106431929794	1.01157085356e-06
12	3.1490090013e+29	5.94007538092e-05	1.1894036052e-06	1.04468965124e+25	0.0178979815055	1.1894036052e-06	2.56563509509e+29	0.00010464751615	1.1894036052e-06
13	4.23708368525e+29	5.78121619612e-05	1.39849910768e-06	1.42471491952e+25	0.0178808041021	1.39849910768e-06	3.46063404804e+29	0.000102800135277	1.39849910768e-06
14	5.69193992233e+29	5.61754540419e-05	1.64435330919e-06	1.94076462635e+25	0.017862357777	1.64435330919e-06	4.66055447627e+29	0.000100890357364	1.64435330919e-06
15	7.63329581997e+29	5.44919678877e-05	1.93342833799e-06	2.64046609173e+25	0.0178425555767	1.93342833799e-06	6.26610756172e+29	9.89191251383e-05	1.93342833799e-06
16	1.02182918339e+30	5.27634051695e-05	2.27332235552e-06	3.58761936253e+25	0.0178213068784	2.27332235552e-06	8.40990261946e+29	9.68877843085e-05	2.27332235552e-06
17	1.36524996736e+30	5.09918541162e-05	2.67296926943e-06	4.86745769597e+25	0.0177985381979	2.67296926943e-06	1.12659697209e+30	9.47981134764e-05	2.67296926943e-06
18	1.82038861116e+30	4.91798108244e-05	3.14287355596e-06	6.59348567028e+25	0.0177741297859	3.14287355596e-06	1.50618808213e+30	9.26523530395e-05	3.14287355596e-06
19	2.42204087261e+30	4.73301986395e-05	3.69538636367e-06	8.91637084444e+25	0.0177479768269	3.69538636367e-06	2.00940760251e+30	9.04532325084e-05	3.69538636367e-06
20	3.21520277818e+30	4.54463850155e-05	4.34503015588e-06	1.20353798892e+26	0.0177199712312	4.34503015588e-06	2.67470996611e+30	8.82039955839e-05	4.34503015588e-06
21	4.25780215163e+30	4.35321951915e-05	5.10888042483e-06	1.62130021375e+26	0.0176899994446	5.10888042483e-06	3.55175447688e+30	8.59084222507e-05	5.10888042483e-06
22	5.6240578966e+30	4.15919219553e-05	6.00701451056e-06	2.17934938071e+26	0.017657943594	6.00701451056e-06	4.70435823105e+30	8.35708470583e-05	6.00701451056e-06
23	7.40856974317e+30	3.96303307045e-05	7.06303932163e-06	2.9226171932e+26	0.0176236819851	7.06303932163e-06	6.21409946524e+30	8.11961726867e-05	7.06303932163e-06
24	9.73124062512e+30	3.76526589657e-05	8.30471182834e-06	3.90943597926e+26	0.0175870896328	8.30471182834e-06	8.18466154176e+30	7.87898778217e-05	8.30471182834e-06
25	1.27430417748e+31	3.56643787075e-05	9.76466863785e-06	5.21385254228e+26	0.0175438720614	9.76466863785e-06	1.07469138925e+31	7.63568908355e-05	9.76466863785e-06
26	1.66330041343e+31	3.3671802738e-05	1.14812838275e-05	6.93215739012e+26	0.0174964143453	1.14812838275e-05	1.40650965034e+31	7.39042573915e-05	1.14812838275e-05
27	2.16354494125e+31	3.16807687412e-05	1.34996775843e-05	9.18673009396e+26	0.0174456069429	1.34996775843e-05	1.8343102423e+31	7.14386120413e-05	1.34996775843e-05
28	2.80398817364e+31	2.96988809866e-05	1.58729021612e-05	1.21317219345e+27	0.0173914090246	1.58729021612e-05	2.38332281459e+31	6.89682306483e-05	1.58729021612e-05
29	3.62000999049e+31	2.7733698888e-05	1.86633363239e-05	1.5956354918e+27	0.0173299569246	1.86633363239e-05	3.08439201393e+31	6.65018624854e-05	1.86633363239e-05
30	4.65444287185e+31	2.57928807467e-05	2.19443249382e-05	2.0897603628e+27	0.0172626674221	2.19443249382e-05	3.97483032793e+31	6.40481715271e-05	2.19443249382e-05
31	5.95863468853e+31	2.38843279858e-05	2.58021067958e-05	2.72461664632e+27	0.0171910960035	2.58021067958e-05	5.09926035737e+31	6.16162086313e-05	2.58021067958e-05
32	7.59346838373e+31	2.20161094512e-05	3.03380813479e-05	3.53508147507e+27	0.0171150610734	3.03380813479e-05	6.51033478447e+31	5.92153316439e-05	3.03380813479e-05
33	9.63028227765e+31	2.01963796276e-05	3.56714739288e-05	4.56251695631e+27	0.0170343887911	3.56714739288e-05	8.26922716602e+31	5.68551263391e-05	3.56714739288e-05
34	1.21511176923e+32	1.84325261497e-05	4.19424695207e-05	5.8550164477e+27	0.0169487471612	4.19424695207e-05	1.04452391161e+32	5.45427274073e-05	4.19424695207e-05
35	1.52498328003e+32	1.67327698641e-05	4.93158974313e-05	7.46735981494e+27	0.0168579940936	4.93158974313e-05	1.31158984787e+32	5.22881150225e-05	4.93158974313e-05
36	1.90327784372e+32	1.51056380493e-05	5.79855637315e-05	9.46031100843e+27	0.0167621473366	5.79855637315e-05	1.63660119105e+32	5.01032093525e-05	5.79855637315e-05
37	2.36179820519e+32	1.35585672372e-05	6.81793453308e-05	1.18982864615e+28	0.0166602821829	6.81793453308e-05	2.02842197813e+32	4.79972316569e-05	6.81793453308e-05
38	2.91336067932e+32	1.20976049024e-05	8.01651795827e-05	1.48379163312e+28	0.0165418659168	8.01651795827e-05	2.49571324032e+32	4.59748963878e-05	8.01651795827e-05
39	3.57217902654e+32	1.07293272937e-05	9.42581068553e-05	1.83467057761e+28	0.0164170925226	9.42581068553e-05	3.04660345793e+32	4.40442792195e-05	9.42581068553e-05
40	4.35462254311e+32	9.46071441746e-06	0.000110828551176	2.2477379182e+28	0.0162861777376	0.000110828551176	3.68825976129e+32	4.2218226625e-05	0.000110828551176
41	5.27923171154e+32	8.29618227728e-06	0.000130312056604	2.72643609806e+28	0.0161485559032	0.000130312056604	4.42498577871e+32	4.05007536028e-05	0.000130312056604
42	6.36899354983e+32	7.23956584565e-06	0.000153220735235	3.26916460634e+28	0.0159925255733	0.000153220735235	5.25731813089e+32	3.88954449966e-05	0.000153220735235
43	7.65587840036e+32	6.2946400655e-06	0.000180156727764	3.87317256146e+28	0.0158249789495	0.000180156727764	6.18135510222e+32	3.7409879873e-05	0.000180156727764
44	9.18521360096e+32	5.46259884937e-06	0.000211828030383	4.52803604429e+28	0.0156402945937	0.000211828030383	7.18473115658e+32	3.6038857399e-05	0.000211828030383
45	1.10329138439e+33	4.74607356781e-06	0.000249067104031	5.22136883868e+28	0.0154484129562	0.000249067104031	8.24999048291e+32	3.47932849399e-05	0.000249067104031
46	1.33224030138e+33	4.14534822891e-06	0.000292852755125	5.93212557906e+28	0.0152496572986	0.000292852755125	9.34920427549e+32	3.36730983188e-05	0.000292852755125
47	1.62580332459e+33	3.65915413019e-06	0.000344335862892	6.62567308417e+28	0.0150292194695	0.000344335862892	1.04411645295e+33	3.26660199461e-05	0.000344335862892
48	2.01926299315e+33	3.28730400919e-06	0.000404869629527	7.26481522761e+28	0.0147862652511	0.000404869629527	1.14799449393e+33	3.1776889431e-05	0.000404869629527
49	2.57185848192e+33	3.02850573699e-06	0.000476045148293	7.81612239307e+28	0.0145356525168	0.000476045148293	1.24108304028e+33	3.10042605877e-05	0.000476045148293
50	3.38177209232e+33	2.88044846516e-06	0.000559733224442	8.23167461769e+28	0.0142654361662	0.000559733224442	1.31659265641e+33	3.03258699706e-05	0.000559733224442
51	4.61389466179e+33	2.84261487728e-06	0.000658133548189	8.47300717859e+28	0.0139781800111	0.000658133548189	1.3691415268e+33	2.97539162512e-05	0.000658133548189
52	6.53766528035e+33	2.91345163628e-06	0.000773832512236	8.50440209466e+28	0.0136682817687	0.000773832512236	1.39215173256e+33	2.92582368755e-05	0.000773832512236
53	9.59685492219e+33	3.09349319636e-06	0.00090987119353	8.31402843192e+28	0.0133482108488	0.00090987119353	1.38195492933e+33	2.88429273456e-05	0.00090987119353
54	1.45143159953e+34	3.38417201931e-06	0.00106982528613	7.89036193038e+28	0.0130031361495	0.00106982528613	1.33621407506e+33	2.84948702079e-05	0.00106982528613
55	2.24657418318e+34	3.78889957026e-06	0.00125789908613	7.25956091028e+28	0.0126470701974	0.00125789908613	1.25524721017e+33	2.81992566831e-05	0.00125789908613
56	3.53594078627e+34	4.31355401127e-06	0.00147903599905	6.45284079985e+28	0.0122693272215	0.00147903599905	1.14225302034e+33	2.79352205302e-05	0.00147903599905
57	5.62895212534e+34	4.96704732528e-06	0.00173904847426	5.53021797878e+28	0.0118802862912	0.00173904847426	1.00351831015e+33	2.76785208332e-05	0.00173904847426
58	9.0270605561e+34	5.76185415224e-06	0.00204477078161	4.55602746549e+28	0.0114807473556	0.00204477078161	8.47695589117e+32	2.73916183344e-05	0.00204477078161
59	1.45429134126e+35	6.71461894218e-06	0.00240423864614	3.59664992933e+28	0.0110721063253	0.00240423864614	6.84225167811e+32	2.69884628721e-05	0.00240423864614
60	2.34940689892e+35	7.84693149659e-06	0.00282690046219	2.71213925869e+28	0.0106588114831	0.00282690046219	5.24199396399e+32	2.63825793056e-05	0.00282690046219
61	3.80170617004e+35	9.18604210599e-06	0.00332386563869	1.94721273612e+28	0.0102468416958	0.00332386563869	3.78394627915e+32	2.54936497107e-05	0.00332386563869
62	6.15773554038e+35	1.07661162958e-05	0.00390819660326	1.32652850758e+28	0.00984302977009	0.00390819660326	2.55553254318e+32	2.42746692702e-05	0.00390819660326
63	9.97973534949e+35	1.26307536296e-05	0.00459525214013	8.54288217425e+27	0.00945331682588	0.00459525214013	1.60971909459e+32	2.28024096603e-05	0.00459525214013
64	1.61800718689e+36	1.48392585605e-05	0.00540309108651	5.18118615997e+27	0.00908532164405	0.00540309108651	9.47625308467e+31	2.12724822227e-05	0.00540309108651
65	2.62395253751e+36	1.74853842949e-05	0.0063529469981	2.94730501024e+27	0.00874643528318	0.0063529469981	5.19097594075e+31	1.97226574977e-05	0.0063529469981
66	4.25617730041e+36	2.07598678116e-05	0.0074697862602	1.56574715452e+27	0.00844437114459	0.0074697862602	2.61804582652e+31	1.80796566422e-05	0.0074697862602
67	6.90487778547e+36	2.51876689433e-05	0.00878296431401	7.73310232822e+26	0.00818768357836	0.00878296431401	1.20536768897e+31	1.63443373406e-05	0.00878296431401
68	1.12033891966e+37	3.25777762852e-05	0.0103269972465	3.53356773787e+26	0.00798534392185	0.0103269972465	5.06698603633e+30	1.46676801575e-05	0.0103269972465
69	1.81789088708e+37	4.99774707336e-05	0.0121424690249	1.48592188744e+26	0.00784656070089	0.0121424690249	1.94080810542e+30	1.31313324305e-05	0.0121424690249
70	2.94916795871e+37	0.000107897805642	0.0142770982214	5.71726733861e+25	0.00778165777271	0.0142770982214	6.72266996618e+29	1.17274412527e-05	0.0142770982214
71	4.77812747724e+37	0.000357518677383	0.016786992267	1.99999294575e+25	0.00780268861029	0.016786992267	2.08836454767e+29	1.04463108064e-05	0.016786992267
72	7.68807788997e+37	0.00164530613706	0.0197381222011	6.3158059023e+24	0.00792379360118	0.0197381222011	5.76572814072e+28	9.27887707182e-06	0.0197381222011
73	1.19189364541e+38	0.00900493622142	0.0232080566805	1.78602201051e+24	0.00816157249361	0.0232080566805	1.40105969706e+28	8.21704607757e-06	0.0232080566805
74	1.53247206166e+38	0.0479383464979	0.0272880008238	4.4809422091e+23	0.00853512098913	0.0272880008238	2.96559921854e+27	7.25447655427e-06	0.0272880008238
75	1.09310448221e+38	0.164787364789	0.0320851934832	9.8654370657e+22	0.00906408428084	0.0320851934832	5.40820062525e+26	6.38629471365e-06	0.0320851934832
76	3.43596739854e+37	0.292710665843	0.0377257259518	1.88129109926e+22	0.00976529484063	0.0377257259518	8.39284928205e+25	5.60435491856e-06	0.0377257259518
77	6.50019902039e+36	0.371434902506	0.0443578561973	3.06261569625e+21	0.0106578365596	0.0443578561973	1.0930433535e+25	4.89860211371e-06	0.0443578561973
78	9.53049316536e+35	0.439698111572	0.0521559057322	4.19086033495e+20	0.0117676583796	0.0521559057322	1.17708774294e+24	4.26196315677e-06	0.0521559057322
79	1.1332662846e+35	0.515952526385	0.0613248415488	4.74053009607e+19	0.0131259726848	0.0613248415488	1.03167716014e+23	3.68905517563e-06	0.0613248415488
