0-group 1-eemit(erg/ccm/s) 2-eabs(1/cm) 3-escat(1/cm) 4-aemit(erg/ccm/s) 5-aabs(1/cm) 6-ascat(1/cm) 7-hemit(erg/ccm/s) 8-habs(1/cm) 9-hscat(1/cm)
0	6.42124513025e+18	7.99658783235e-13	8.20117955045e-16	8.49470567839e+17	5.82975191128e-13	8.20117955045e-16	7.1868976298e+16	7.27598963497e-14	8.20117955045e-16
1	3.91272864448e+18	1.32136213337e-12	3.5571549456e-15	9.88001753656e+17	1.03931535447e-12	3.5571549456e-15	1.20752428016e+17	1.33000702201e-13	3.5571549456e-15
2	5.34881693333e+18	1.43525610031e-12	4.18249784643e-15	1.40942713498e+18	1.13026087978e-12	4.18249784643e-15	1.78029321226e+17	1.45249640642e-13	4.18249784643e-15
3	7.27886284016e+18	1.55944355313e-12	4.91777516103e-15	1.9917195325e+18	1.22899749657e-12	4.91777516103e-15	2.59710284708e+17	1.58574183817e-13	4.91777516103e-15
4	9.85449755929e+18	1.69489746958e-12	5.78231320671e-15	2.78736253805e+18	1.33620558292e-12	5.78231320671e-15	3.74789198222e+17	1.73069686786e-13	5.78231320671e-15
5	1.3264316705e+19	1.8426800928e-12	6.79883584053e-15	3.86178187895e+18	1.45262338354e-12	6.79883584053e-15	5.34864855479e+17	1.88839810974e-13	6.79883584053e-15
6	1.77378981919e+19	2.00394869297e-12	7.99406174207e-15	5.29449837419e+18	1.57905112691e-12	7.99406174207e-15	7.54532221477e+17	2.05997080751e-13	7.99406174207e-15
7	2.35471570552e+19	2.17996072591e-12	9.39940669771e-15	7.17898622747e+18	1.71635502651e-12	9.39940669771e-15	1.05162893362e+18	2.24663420662e-13	9.39940669771e-15
8	3.10038813282e+19	2.37207925027e-12	1.10518093454e-14	9.62125459292e+18	1.86547217834e-12	1.10518093454e-14	1.44719379709e+18	2.44970662877e-13	1.10518093454e-14
9	4.04500000058e+19	2.58177699714e-12	1.29947020845e-14	1.27352815835e+19	2.02741476858e-12	1.29947020845e-14	1.96494539474e+18	2.67061017421e-13	1.29947020845e-14
10	5.22404679659e+19	2.81064112142e-12	1.52791526696e-14	1.66370979729e+19	2.2032756297e-12	1.52791526696e-14	2.63005508017e+18	2.91087506151e-13	1.52791526696e-14
11	6.67159394909e+19	3.06037706579e-12	1.7965206496e-14	2.14366095866e+19	2.39423325144e-12	1.7965206496e-14	3.46710160047e+18	3.1721440051e-13	1.7965206496e-14
12	8.41432527052e+19	3.33280822539e-12	2.11234648559e-14	2.72074538806e+19	2.60155238708e-12	2.11234648559e-14	4.49669164734e+18	3.45617553633e-13	2.11234648559e-14
13	1.04656638549e+20	3.62988468733e-12	2.48369406506e-14	3.39686184513e+19	2.82659326054e-12	2.48369406506e-14	5.73079595353e+18	3.76484807232e-13	2.48369406506e-14
14	1.28185615356e+20	3.95369083598e-12	2.92032403344e-14	4.16627904916e+19	3.07081793881e-12	2.92032403344e-14	7.16712725548e+18	4.10016515304e-13	2.92032403344e-14
15	1.54372749128e+20	4.30645444846e-12	3.43371294407e-14	5.01311215229e+19	3.33579588628e-12	3.43371294407e-14	8.78295589988e+18	4.46426181216e-13	3.43371294407e-14
16	1.82484777577e+20	4.69055820968e-12	4.03735491241e-14	5.90805797064e+19	3.62367380799e-12	4.03735491241e-14	1.05294412727e+19	4.85941276843e-13	4.03735491241e-14
17	2.11369040459e+20	5.10855447591e-12	4.74711630072e-14	6.80887302271e+19	3.94655284959e-12	4.74711630072e-14	1.23278791588e+19	5.28804263092e-13	4.74711630072e-14
18	2.39439687374e+20	5.56317408978e-12	5.58165275569e-14	7.65911904516e+19	4.29918096089e-12	5.58165275569e-14	1.40697315857e+19	5.75273807972e-13	5.58165275569e-14
19	2.64739311452e+20	6.0573193381e-12	6.56289956081e-14	8.39269950873e+19	4.68431646306e-12	6.56289956081e-14	1.56220475708e+19	6.2554307468e-13	6.56289956081e-14
20	2.85086717213e+20	6.59401512879e-12	7.71664819195e-14	8.93966506418e+19	5.10585645022e-12	7.71664819195e-14	1.68393705489e+19	6.80071243614e-13	7.71664819195e-14
21	2.98315382881e+20	7.17627152612e-12	9.07322423062e-14	9.23501649662e+19	5.56753695464e-12	9.07322423062e-14	1.7581908948e+19	7.39095489243e-13	9.07322423062e-14
22	3.02584032847e+20	7.8067823682e-12	1.06682844535e-13	9.22933909652e+19	6.07337833359e-12	1.06682844535e-13	1.77379296006e+19	8.02953362291e-13	1.06682844535e-13
23	2.96713226844e+20	8.48738211179e-12	1.2543754049e-13	8.89915182476e+19	6.62779310948e-12	1.2543754049e-13	1.72464555899e+19	8.72004056969e-13	1.2543754049e-13
24	2.80481749127e+20	9.2183300095e-12	1.47489285956e-13	8.25472949545e+19	7.23565721788e-12	1.47489285956e-13	1.61149263247e+19	9.46627937326e-13	1.47489285956e-13
25	2.54802781618e+20	9.99802663623e-12	1.73417697659e-13	7.34288373536e+19	7.90237237021e-12	1.73417697659e-13	1.4426348966e+19	1.02722499237e-12	1.73417697659e-13
26	2.21703485469e+20	1.08245650244e-11	2.03904288142e-13	6.24234574691e+19	8.63365344307e-12	2.03904288142e-13	1.23320705949e+19	1.11417788425e-12	2.03904288142e-13
27	1.84084914857e+20	1.16997873384e-11	2.39750378905e-13	5.05268101884e+19	9.43610467756e-12	2.39750378905e-13	1.00297649101e+19	1.20791221128e-12	2.39750378905e-13
28	1.45282770336e+20	1.26324741725e-11	2.81898162657e-13	3.87826379298e+19	1.03170748813e-11	2.81898162657e-13	7.73041899348e+18	1.30886981352e-12	2.81898162657e-13
29	1.08512653667e+20	1.36363709701e-11	3.31455468277e-13	2.81051050844e+19	1.12845175638e-11	3.31455468277e-13	5.62212011417e+18	1.41747197853e-12	3.31455468277e-13
30	7.63437342498e+19	1.47242499394e-11	3.89724879421e-13	1.91377064376e+19	1.23471324524e-11	3.89724879421e-13	3.84009296865e+18	1.53412174893e-12	3.89724879421e-13
31	5.03357080685e+19	1.59003644813e-11	4.58237972145e-13	1.21816910166e+19	1.35143949497e-11	4.58237972145e-13	2.45078535475e+18	1.65918749023e-12	4.58237972145e-13
32	3.09299797971e+19	1.71564654791e-11	5.3879557145e-13	7.20759102891e+18	1.47965777732e-11	5.3879557145e-13	1.45335487354e+18	1.7929818043e-12	5.3879557145e-13
33	1.76065415255e+19	1.85095624987e-11	6.3351508487e-13	3.93996695013e+18	1.6204762887e-11	6.3351508487e-13	7.95993336891e+17	1.93573481994e-12	6.3351508487e-13
34	9.22419740861e+18	1.99519439848e-11	7.44886157244e-13	1.97667110256e+18	1.77508402247e-11	7.44886157244e-13	3.99998175177e+17	2.08756079371e-12	7.44886157244e-13
35	4.41650443755e+18	2.14817761487e-11	8.75836109519e-13	9.03646642569e+17	1.94474911539e-11	8.75836109519e-13	1.83108834991e+17	2.24841691537e-12	8.75836109519e-13
36	1.91780714272e+18	2.30958081168e-11	1.0298068816e-12	3.73506372967e+17	2.13081548571e-11	1.0298068816e-12	7.57683682009e+16	2.41805328573e-12	1.0298068816e-12
37	7.49058229099e+17	2.47886531988e-11	1.21084550164e-12	1.38408396502e+17	2.33469797479e-11	1.21084550164e-12	2.81014844294e+16	2.59595327567e-12	1.21084550164e-12
38	2.60809833987e+17	2.65519679007e-11	1.42371045975e-12	4.55627249047e+16	2.55787663624e-11	1.42371045975e-12	9.25669534199e+15	2.78126397505e-12	1.42371045975e-12
39	8.01725574248e+16	2.83735841014e-11	1.67399678195e-12	1.31923151336e+16	2.80189166133e-11	1.67399678195e-12	2.68134019055e+15	2.97271729088e-12	1.67399678195e-12
40	2.15314854731e+16	3.02366173274e-11	1.96828309211e-12	3.32364753429e+15	3.06834156738e-11	1.96828309211e-12	6.75669408327e+14	3.16854358725e-12	1.96828309211e-12
41	4.99518073293e+15	3.21185752251e-11	2.31430452702e-12	7.20133943503e+14	3.35888889433e-11	2.31430452702e-12	1.46393839173e+14	3.36638167867e-12	2.31430452702e-12
42	9.88871454654e+14	3.39905129346e-11	2.72115604979e-12	1.32498620478e+14	3.6752798305e-11	2.72115604979e-12	2.6928162971e+13	3.56319158957e-12	2.72115604979e-12
43	1.64850176199e+14	3.58163170888e-11	3.1995315054e-12	2.04193512667e+13	4.0193868457e-11	3.1995315054e-12	4.14771222404e+12	3.75517977211e-12	3.1995315054e-12
44	2.28128913909e+13	3.75522410456e-11	3.76200470195e-12	2.59678171834e+12	4.39328653615e-11	3.76200470195e-12	527042034518.0	3.93775027162e-12	3.76200470195e-12
45	2.5803848266e+12	3.91468543742e-11	4.42335990555e-12	268151695399.0	4.79938811662e-11	4.42335990555e-12	54360707928.0	4.10549923792e-12	4.42335990555e-12
46	234596409877.0	4.05416022029e-11	5.20098043574e-12	22094250889.0	5.24063076195e-11	5.20098043574e-12	4472004814.9	4.25227343916e-12	5.20098043574e-12
47	16834865241.2	4.16721845563e-11	6.11530557552e-12	1425276975.91	5.7207694912e-11	6.11530557552e-12	287889913.474	4.37131489263e-12	6.11530557552e-12
48	935004246.05	4.24709484405e-11	7.19036780546e-12	70521827.4012	6.24476834272e-11	7.19036780546e-12	14206553.1773	4.4555118882e-12	7.19036780546e-12
49	39344472.8563	4.28704212087e-11	8.45442448286e-12	2617563.26718	6.81931502206e-11	8.45442448286e-12	525487.850188	4.49776993671e-12	8.45442448286e-12
50	1225720.70169	4.28079907748e-11	9.94070056917e-12	71149.3689851	7.45346207936e-11	9.94070056917e-12	14220.0348516	4.4915032614e-12	9.94070056917e-12
51	27571.3117838	4.22315541132e-11	1.1688261928e-11	1379.88795791	8.15938578993e-11	1.1688261928e-11	274.19816949	4.43122810981e-12	1.1688261928e-11
52	435.785306315	4.11057241269e-11	1.37430421474e-11	18.5653770625	8.95323636466e-11	1.37430421474e-11	3.66142993802	4.3132148542e-12	1.37430421474e-11
53	4.69909003389	3.94179411423e-11	1.61590498767e-11	0.168101688767	9.85603462109e-11	1.61590498767e-11	0.0328253002154	4.13613022286e-12	1.61590498767e-11
54	0.0334774175427	3.71836333057e-11	1.89997884105e-11	0.000991405434839	1.08945550439e-10	1.89997884105e-11	0.000191052575349	3.90157976414e-12	1.89997884105e-11
55	0.000152178906987	3.44494743658e-11	2.23399248345e-11	3.67692196942e-06	1.21021282478e-10	2.23399248345e-11	6.96092438222e-07	3.61445055544e-12	2.23399248345e-11
56	4.24992073698e-07	3.12938552045e-11	2.62672526046e-11	8.25907989838e-09	1.35193016456e-10	2.62672526046e-11	1.52616079634e-09	3.2829612722e-12	2.62672526046e-11
57	6.99799279234e-10	2.78239477992e-11	3.08849991442e-11	1.07960595049e-11	1.51943179042e-10	3.08849991442e-11	1.93136162549e-12	2.91835426639e-12	3.08849991442e-11
58	6.52863658187e-13	2.41691855978e-11	3.63145391143e-11	1.09995732909e-14	1.71834054752e-10	3.63145391143e-11	4.47562110916e-15	2.53421107253e-12	3.63145391143e-11
59	4.65624709932e-15	2.04715538982e-11	4.2698584673e-11	4.33525813777e-15	1.95509193654e-10	4.2698584673e-11	4.33269013712e-15	2.14543260289e-12	4.2698584673e-11
60	5.98936127756e-15	1.68736792341e-11	5.02049365776e-11	5.98927951806e-15	2.23694155195e-10	5.02049365776e-11	5.98927900184e-15	1.76698786423e-12	5.02049365776e-11
61	8.28019233362e-15	1.35062069776e-11	5.90308947255e-11	8.2801923236e-15	2.57197792073e-10	5.90308947255e-11	8.28019232355e-15	1.41258761149e-12	5.90308947255e-11
62	1.14473855539e-14	1.04762406024e-11	6.94084440622e-11	1.14473855539e-14	2.96915472227e-10	6.94084440622e-11	1.14473855539e-14	1.09346925599e-12	6.94084440622e-11
63	1.58260377174e-14	7.8585894871e-12	8.16103521646e-11	1.58260377174e-14	3.4383558136e-10	8.16103521646e-11	1.58260377174e-14	8.17476596643e-13	8.16103521646e-11
64	2.18795347334e-14	5.69119290288e-12	9.59573387707e-11	2.18795347334e-14	3.99050310096e-10	9.59573387707e-11	2.18795347334e-14	5.88578134891e-13	9.59573387707e-11
65	3.02485087358e-14	3.97539167151e-12	1.12826505703e-10	3.02485087358e-14	4.63771134744e-10	1.12826505703e-10	3.02485087358e-14	4.06894617426e-13	1.12826505703e-10
66	4.18186351717e-14	2.68083132836e-12	1.32661248763e-10	4.18186351717e-14	5.39348641924e-10	1.32661248763e-10	4.18186351717e-14	2.69213197322e-13	1.32661248763e-10
67	5.781436245e-14	1.75390249429e-12	1.55982912114e-10	5.781436245e-14	6.27295574839e-10	1.55982912114e-10	5.781436245e-14	1.69873332504e-13	1.55982912114e-10
68	7.99284934042e-14	1.12798384917e-12	1.83404491503e-10	7.99284934042e-14	7.29311362247e-10	1.83404491503e-10	7.99284934042e-14	1.01842240426e-13	1.83404491503e-10
69	1.10501331973e-13	7.78549937672e-13	2.15646746478e-10	1.10501331973e-13	1.35259992727e-14	2.15646746478e-10	1.10501331973e-13	1.31247487275e-15	2.15646746478e-10
70	1.52768353908e-13	5.15211861564e-20	2.53557145114e-10	1.52768353908e-13	4.94134759938e-23	2.53557145114e-10	1.52768353908e-13	2.20787242771e-24	2.53557145114e-10
71	2.11202612124e-13	2.42476473752e-29	2.98132139197e-10	2.11202612124e-13	3.47508784281e-32	2.98132139197e-10	2.11202612124e-13	5.06746217188e-33	2.98132139197e-10
72	2.91988112897e-13	2.21477274183e-39	3.50543355354e-10	2.91988112897e-13	4.09287305067e-42	3.50543355354e-10	2.91988112897e-13	4.76705408756e-33	3.50543355354e-10
73	4.03674259593e-13	2.51518266252e-42	4.12168390546e-10	4.03674259593e-13	1.50748837109e-46	4.12168390546e-10	4.03674259593e-13	5.16913019114e-33	4.12168390546e-10
74	5.5808062267e-13	2.72732050514e-42	4.84627021366e-10	5.5808062267e-13	1.63463358368e-46	4.84627021366e-10	5.5808062267e-13	5.60511838942e-33	4.84627021366e-10
75	7.71547786361e-13	2.95735061449e-42	5.69823778887e-10	7.71547786361e-13	1.77250329118e-46	5.69823778887e-10	7.71547786361e-13	6.07787891259e-33	5.69823778887e-10
76	1.06666664718e-12	3.20678203312e-42	6.69998008096e-10	1.06666664718e-12	1.92200127155e-46	6.69998008096e-10	1.06666664718e-12	6.59051322979e-33	6.69998008096e-10
77	1.4746691732e-12	3.47725111562e-42	7.87782727722e-10	1.4746691732e-12	2.08410828214e-46	7.87782727722e-10	1.4746691732e-12	7.1463843957e-33	7.87782727722e-10
78	2.0387336345e-12	3.77053223074e-42	9.26273837531e-10	2.0387336345e-12	2.25988779982e-46	9.26273837531e-10	2.0387336345e-12	7.74913911338e-33	9.26273837531e-10
79	2.81855409197e-12	4.08854940192e-42	1.08911149217e-09	2.81855409197e-12	2.45049299775e-46	1.08911149217e-09	2.81855409197e-12	8.40273165788e-33	1.08911149217e-09
