0-group 1-eemit(erg/ccm/s) 2-eabs(1/cm) 3-escat(1/cm) 4-aemit(erg/ccm/s) 5-aabs(1/cm) 6-ascat(1/cm) 7-hemit(erg/ccm/s) 8-habs(1/cm) 9-hscat(1/cm)
0	1.24880572999e+26	6.2145415462e-07	3.76335987208e-09	7.00737525654e+25	1.00974502618e-06	3.76335987208e-09	1.00616174009e+26	6.59364335598e-07	3.76335987208e-09
1	6.64046299589e+25	5.81347305603e-07	1.63230838914e-08	3.61611524827e+25	9.37776943592e-07	1.63230838914e-08	5.16965880312e+25	5.99993381922e-07	1.63230838914e-08
2	9.12236790528e+25	5.78648961473e-07	1.91926593772e-08	4.92457910472e+25	9.2908481045e-07	1.91926593772e-08	7.03423137946e+25	5.92317743847e-07	1.91926593772e-08
3	1.25345779375e+26	5.76161110443e-07	2.25667022494e-08	6.70064467861e+25	9.19984009422e-07	2.25667022494e-08	9.56201245564e+25	5.84305725612e-07	2.25667022494e-08
4	1.72285403637e+26	5.7394516923e-07	2.65338971742e-08	9.10880824105e+25	9.10462404117e-07	2.65338971742e-08	1.29847453118e+26	5.75949377974e-07	2.65338971742e-08
5	2.36905978117e+26	5.72073520219e-07	3.11985194589e-08	1.23702795548e+26	9.00508582183e-07	3.11985194589e-08	1.76133123295e+26	5.67241571392e-07	3.11985194589e-08
6	3.25952308506e+26	5.70631335225e-07	3.66831758651e-08	1.67820289692e+26	8.90112035614e-07	3.66831758651e-08	2.3863955108e+26	5.58176153463e-07	3.66831758651e-08
7	4.48802487351e+26	5.69718704119e-07	4.31320272527e-08	2.27420116403e+26	8.79263351994e-07	4.31320272527e-08	3.22928324993e+26	5.48748112411e-07	4.31320272527e-08
8	6.18535305193e+26	5.6945312524e-07	5.07145777611e-08	3.07824775732e+26	8.67954416465e-07	5.07145777611e-08	4.36414179472e+26	5.38953745901e-07	5.07145777611e-08
9	8.53454255391e+26	5.69972426494e-07	5.96301301215e-08	4.16138255705e+26	8.56178624135e-07	5.96301301215e-08	5.88959238455e+26	5.28790834297e-07	5.96301301215e-08
10	1.17927699391e+27	5.71438200738e-07	7.01130242089e-08	5.61821495461e+26	8.43931102607e-07	7.01130242089e-08	7.93647878424e+26	5.18258817448e-07	7.01130242089e-08
11	1.63230174462e+27	5.74039857093e-07	8.24387965228e-08	7.57444858865e+26	8.31208944105e-07	8.24387965228e-08	1.06779289809e+27	5.0735897385e-07	8.24387965228e-08
12	2.264018592e+27	5.7799941221e-07	9.6931422497e-08	1.01966832157e+27	8.18011446423e-07	9.6931422497e-08	1.43423612616e+27	4.96094600797e-07	9.6931422497e-08
13	3.14787358349e+27	5.83577173279e-07	1.13971831996e-07	1.37051303317e+27	8.04340361642e-07	1.13971831996e-07	1.92302133671e+27	4.84471193778e-07	1.13971831996e-07
14	4.38926376888e+27	5.91078499366e-07	1.34007921828e-07	1.83900353431e+27	7.90200151114e-07	1.34007921828e-07	2.57353445127e+27	4.72496623004e-07	1.34007921828e-07
15	6.14041535565e+27	6.00861871397e-07	1.57566328434e-07	2.46327845377e+27	7.75598244769e-07	1.57566328434e-07	3.43722537507e+27	4.60181304457e-07	1.57566328434e-07
16	8.62269142397e+27	6.13348556429e-07	1.85266270214e-07	3.29439114161e+27	7.60815156465e-07	1.85266270214e-07	4.58104702214e+27	4.47538362347e-07	1.85266270214e-07
17	1.21602744559e+28	6.29034222255e-07	2.17835823302e-07	4.42842791526e+27	7.51190550903e-07	2.17835823302e-07	6.09176925016e+27	4.34583779332e-07	2.17835823302e-07
18	1.72313648035e+28	6.48502948549e-07	2.56131058604e-07	5.95283953736e+27	7.42563222267e-07	2.56131058604e-07	8.08134700465e+27	4.2133653026e-07	2.56131058604e-07
19	2.45464940239e+28	6.72444196796e-07	3.01158543106e-07	8.00610426531e+27	7.35363361636e-07	3.01158543106e-07	1.06935404946e+28	4.07818694654e-07	3.01158543106e-07
20	3.5169011391e+28	7.01673451801e-07	3.54101796868e-07	1.07839815357e+28	7.30393498876e-07	3.54101796868e-07	1.41119969846e+28	3.94055542602e-07	3.54101796868e-07
21	5.07014407628e+28	7.37157443892e-07	4.16352401137e-07	1.45596903833e+28	7.28300718321e-07	4.16352401137e-07	1.8570003498e+28	3.80075588266e-07	4.16352401137e-07
22	7.35751003234e+28	7.80045118951e-07	4.89546575211e-07	1.97204326162e+28	7.29792965351e-07	4.89546575211e-07	2.43621001168e+28	3.65910604792e-07	4.89546575211e-07
23	1.07502121675e+29	8.31705864684e-07	5.75608183467e-07	2.68211569247e+28	7.35684054119e-07	5.75608183467e-07	3.18576950547e+28	3.51595594191e-07	5.75608183467e-07
24	1.58183567634e+29	8.93776956278e-07	6.7679930297e-07	3.66656802307e+28	7.46920495262e-07	6.7679930297e-07	4.15167331086e+28	3.37168705659e-07	6.7679930297e-07
25	2.34422333982e+29	9.68222794955e-07	7.95779680792e-07	5.04296536671e+28	7.64606356311e-07	7.95779680792e-07	5.39073237315e+28	3.22671095948e-07	7.95779680792e-07
26	3.4987704489e+29	1.05740933802e-06	9.35676643849e-07	6.98472054465e+28	7.90030069952e-07	9.35676643849e-07	6.97250168749e+28	3.08146725861e-07	9.35676643849e-07
27	5.25832503211e+29	1.16419824298e-06	1.10016729878e-06	9.74939938435e+28	8.24694815627e-07	1.10016729878e-06	8.98131058709e+28	2.93642087698e-07	1.10016729878e-06
28	7.95584105916e+29	1.29206679029e-06	1.29357518248e-06	1.37215281896e+29	8.70353591843e-07	1.29357518248e-06	1.15182919796e+29	2.79205859696e-07	1.29357518248e-06
29	1.21138666853e+30	1.4452617811e-06	1.52098390362e-06	1.94770395126e+29	9.29050052265e-07	1.52098390362e-06	1.47032530083e+29	2.64888485125e-07	1.52098390362e-06
30	1.85547942708e+30	1.6289985734e-06	1.7883707622e-06	2.78796909302e+29	1.0031663046e-06	1.7883707622e-06	1.86761634103e+29	2.50741675912e-07	1.7883707622e-06
31	2.85759033827e+30	1.84972057999e-06	2.1027638593e-06	4.0224188914e+29	1.09547909076e-06	2.1027638593e-06	2.35979604919e+29	2.36817843354e-07	2.1027638593e-06
32	4.42273557807e+30	2.11544042176e-06	2.47242682638e-06	5.84466321015e+29	1.20922606162e-06	2.47242682638e-06	2.96502850038e+29	2.23169461797e-07	2.47242682638e-06
33	6.87536360802e+30	2.43619226312e-06	2.90707602984e-06	8.5430489527e+29	1.34818422905e-06	2.90707602984e-06	3.70336777876e+29	2.09848374989e-07	2.90707602984e-06
34	1.07294117662e+31	2.82463675358e-06	3.41813595982e-06	1.25445713589e+30	1.51676312875e-06	3.41813595982e-06	4.59636952111e+29	1.96905059192e-07	3.41813595982e-06
35	1.67993605105e+31	3.29687705769e-06	4.01903951597e-06	1.84769446405e+30	1.72011576623e-06	4.01903951597e-06	5.66643602541e+29	1.8438786183e-07	4.01903951597e-06
36	2.63759669114e+31	3.87356899753e-06	4.72558108301e-06	2.72548114324e+30	1.96427105269e-06	4.72558108301e-06	6.93583800577e+29	1.72342239467e-07	4.72558108301e-06
37	4.1503639332e+31	4.5814436892e-06	5.5563316766e-06	4.01970372921e+30	2.25629217147e-06	5.5563316766e-06	8.42536598628e+29	1.60810023777e-07	5.5563316766e-06
38	6.54166924397e+31	5.45541194748e-06	6.53312707117e-06	5.91824461184e+30	2.60429023318e-06	6.53312707117e-06	1.01525860793e+30	1.49828748814e-07	6.53312707117e-06
39	1.03222179778e+32	6.54149265485e-06	7.68164173996e-06	8.68505674943e+30	3.018311367e-06	7.68164173996e-06	1.21297116181e+30	1.39431076611e-07	7.68164173996e-06
40	1.62961690915e+32	7.90091076705e-06	9.03206369298e-06	1.2685103525e+31	3.5096723141e-06	9.03206369298e-06	1.43611558801e+30	1.29644360689e-07	9.03206369298e-06
41	2.5724781596e+32	9.6158548793e-06	1.06198879505e-05	1.84138896577e+31	4.09187755255e-06	1.06198879505e-05	1.68409016921e+30	1.20490387587e-07	1.06198879505e-05
42	4.05755839146e+32	1.17975792719e-05	1.2486849508e-05	2.65301665569e+31	4.78086461117e-06	1.2486849508e-05	1.95499068401e+30	1.11985334339e-07	1.2486849508e-05
43	6.38954366278e+32	1.45977850338e-05	1.46820203152e-05	3.78885813008e+31	5.59546347102e-06	1.46820203152e-05	2.24538499614e+30	1.04139974047e-07	1.46820203152e-05
44	1.00356006786e+33	1.82245032094e-05	1.72630991028e-05	5.35664277898e+31	6.5579403616e-06	1.72630991028e-05	2.55015927252e+30	9.69601509639e-08	1.72630991028e-05
45	1.57024379195e+33	2.29639642406e-05	2.02979279577e-05	7.48752573115e+31	7.69463875238e-06	2.02979279577e-05	2.86247656347e+30	9.04475294954e-08	2.02979279577e-05
46	2.443964912e+33	2.92100003648e-05	2.38662755118e-05	1.03344182849e+32	9.03673158496e-06	2.38662755118e-05	3.17388458294e+30	8.4600596091e-08	2.38662755118e-05
47	3.77670414943e+33	3.75020206576e-05	2.80619336119e-05	1.40657968418e+32	1.06211002347e-05	2.80619336119e-05	3.4745954912e+30	7.94158571035e-08	2.80619336119e-05
48	5.7808558895e+33	4.85708408364e-05	3.29951825808e-05	1.88530734116e+32	1.24913575284e-05	3.29951825808e-05	3.75393440013e+30	7.488912736e-08	3.29951825808e-05
49	8.73854038517e+33	6.33794733149e-05	3.87956898694e-05	2.48497321014e+32	1.46990346588e-05	3.87956898694e-05	4.00091642595e+30	7.10167440489e-08	3.87956898694e-05
50	1.29972299062e+34	8.31926334403e-05	4.56159182862e-05	3.21611602102e+32	1.73049554012e-05	4.56159182862e-05	4.204871407e+30	6.77964759325e-08	4.56159182862e-05
51	1.89362321149e+34	0.000109544864866	5.36351333896e-05	4.08056899576e+32	2.03808261071e-05	5.36351333896e-05	4.35600614443e+30	6.52190781057e-08	5.36351333896e-05
52	2.68857319785e+34	0.000144212282838	6.30641153748e-05	5.06699766882e+32	2.40110770154e-05	6.30641153748e-05	4.44579960913e+30	6.33030443175e-08	6.30641153748e-05
53	3.69886712117e+34	0.000189064448582	7.41506993021e-05	6.14653663537e+32	2.82949999304e-05	7.41506993021e-05	4.46719104598e+30	6.20399849177e-08	7.41506993021e-05
54	4.90249245795e+34	0.000245839434209	8.71862892917e-05	7.26957872062e+32	3.33492394991e-05	8.71862892917e-05	4.41464887572e+30	6.14279257372e-08	8.71862892917e-05
55	6.22636680954e+34	0.000315906463833	0.000102513517903	8.36507756738e+32	3.93107099218e-05	0.000102513517903	4.28435523626e+30	6.14599885015e-08	0.000102513517903
56	7.54424410484e+34	0.000400146472418	0.000120535252025	9.34377891406e+32	4.63400249992e-05	0.000120535252025	4.07480055652e+30	6.21228725685e-08	0.000120535252025
57	8.69433779274e+34	0.000499069678699	0.000141725181985	1.01064054709e+33	5.46255455129e-05	0.000141725181985	3.78793647581e+30	6.33971865735e-08	0.000141725181985
58	9.51398198303e+34	0.000613176281285	0.000166640272213	1.05568552025e+33	6.43881629912e-05	0.000166640272213	3.43067287427e+30	6.52599504969e-08	0.000166640272213
59	9.87862491672e+34	0.00074342484935	0.000195935400712	1.06189760697e+33	7.58869532886e-05	0.000195935400712	3.01610643987e+30	6.76886122358e-08	0.000195935400712
60	9.73048696643e+34	0.000891624305034	0.000230380572128	1.0253768526e+33	8.94258489219e-05	0.000230380572128	2.56371429393e+30	7.0665244899e-08	0.000230380572128
61	9.088916762e+34	0.00106062001633	0.000270881156858	9.4725462611e+32	0.000105358998449	0.000270881156858	2.09799019945e+30	7.41779168716e-08	0.000270881156858
62	8.04290665907e+34	0.00125435066969	0.000318501688153	8.34140663824e+32	0.000124102766707	0.000318501688153	1.64554369885e+30	7.82245010438e-08	0.000318501688153
63	6.73073001298e+34	0.00147783989955	0.000374493842736	6.97389344647e+32	0.000146148775625	0.000374493842736	1.2312660428e+30	8.28134530291e-08	0.000374493842736
64	5.3124092383e+34	0.00173708798455	0.000440329340358	5.51194755903e+32	0.000172071704933	0.000440329340358	8.74547779953e+29	8.79586136324e-08	0.000440329340358
65	3.94051878832e+34	0.00203909341964	0.000517738627058	4.09923965107e+32	0.000202545619745	0.000517738627058	5.86576971067e+29	9.36782395319e-08	0.000517738627058
66	2.73498514113e+34	0.0023919262088	0.000608756358888	2.85414785597e+32	0.000238360972635	0.000608756358888	3.69439952082e+29	9.99923298192e-08	0.000608756358888
67	1.76723916796e+34	0.00280487420443	0.000715774881609	1.85032982577e+32	0.000280444426407	0.000715774881609	2.17187321529e+29	1.06919927972e-07	0.000715774881609
68	1.05704796146e+34	0.00328865558064	0.000841607112044	1.11032314031e+32	0.000329881966079	0.000841607112044	1.18412970965e+29	1.14476466852e-07	0.000841607112044
69	5.8158285844e+33	0.00385568936209	0.00098956047389	6.12763393656e+31	0.000387945848052	0.00098956047389	5.94607854009e+28	1.22671097993e-07	0.00098956047389
70	2.92312945164e+33	0.00452041833613	0.00116352383134	3.08862721977e+31	0.000456126023831	0.00116352383134	2.72955805303e+28	1.31503874414e-07	0.00116352383134
71	1.33212384735e+33	0.00529968288484	0.0013680697055	1.41125493748e+31	0.000536166777718	0.0013680697055	1.13631783509e+28	1.40962632005e-07	0.0013680697055
72	5.45968835645e+32	0.006213149126	0.00160857446035	5.79806048514e+30	0.00063010943653	0.00160857446035	4.25303227148e+27	1.51019428659e-07	0.00160857446035
73	1.99476851094e+32	0.00728379931997	0.00189135961721	2.12313486433e+30	0.000740342149739	0.00189135961721	1.41788425452e+27	1.61626444459e-07	0.00189135961721
74	6.43545950375e+31	0.0085384962164	0.00222385801203	6.86368128486e+29	0.000869657905756	0.00222385801203	4.16829152281e+26	1.72711315518e-07	0.00222385801203
75	1.81447718482e+31	0.0100086358324	0.00261480916303	1.93887488461e+29	0.00102132214989	0.00261480916303	1.06889210182e+26	1.84171968568e-07	0.00261480916303
76	4.42145098354e+30	0.011730905445	0.0030744889836	4.73279518651e+28	0.00119915160694	0.0030744889836	2.36304148465e+25	1.9587114755e-07	0.0030744889836
77	9.19982870043e+29	0.0137481658559	0.00361497987842	9.86339469329e+27	0.00140760619164	0.00361497987842	4.44692290379e+24	2.07630983281e-07	0.00361497987842
78	1.61334535835e+29	0.0161104796474	0.00425048832216	1.73225502153e+27	0.00165189621637	0.00425048832216	7.02646128845e+23	2.19228155678e-07	0.00425048832216
79	2.35111173982e+28	0.018876310377	0.004997718268	2.52780837866e+26	0.0019381074796	0.004997718268	9.18437416657e+22	2.30390429599e-07	0.004997718268
