0-group 1-eemit(erg/ccm/s) 2-eabs(1/cm) 3-escat(1/cm) 4-aemit(erg/ccm/s) 5-aabs(1/cm) 6-ascat(1/cm) 7-hemit(erg/ccm/s) 8-habs(1/cm) 9-hscat(1/cm)
0	4.21837097304e+18	5.45521349713e-13	6.4397351499e-16	6.61476833535e+17	3.97129298943e-13	6.4397351499e-16	5.46033561356e+16	4.88339347935e-14	6.4397351499e-16
1	2.60160159746e+18	8.91215891501e-13	2.79315135047e-15	7.77377194069e+17	7.02721504669e-13	2.79315135047e-15	9.37435832157e+16	8.86104034126e-14	2.79315135047e-15
2	3.55038180624e+18	9.67992779206e-13	3.28418347999e-15	1.10677720514e+18	7.64187176647e-13	3.28418347999e-15	1.3809079514e+17	9.67802366941e-14	3.28418347999e-15
3	4.82076453712e+18	1.05167765624e-12	3.86153837616e-15	1.56000549806e+18	8.30904740493e-13	3.86153837616e-15	2.01146475609e+17	1.05664729331e-13	3.86153837616e-15
4	6.50856821808e+18	1.14291873983e-12	4.54039146149e-15	2.17624729166e+18	9.03332210977e-13	4.54039146149e-15	2.89650541895e+17	1.15326731092e-13	4.54039146149e-15
5	8.73136241339e+18	1.24242274461e-12	5.33858597673e-15	3.00365872746e+18	9.81966523699e-13	5.33858597673e-15	4.12191340711e+17	1.25834525081e-13	5.33858597673e-15
6	1.16299178355e+19	1.35095852748e-12	6.27710197957e-15	4.09977267925e+18	1.06734629521e-12	6.27710197957e-15	5.79417513716e+17	1.37262189613e-13	6.27710197957e-15
7	1.53675846132e+19	1.4693603897e-12	7.38060779271e-15	5.53084291626e+18	1.16005451857e-12	7.38060779271e-15	8.04105358521e+17	1.49689947543e-13	7.38060779271e-15
8	2.01266612953e+19	1.59853146716e-12	8.67810839574e-15	7.36989460867e+18	1.26072166161e-12	8.67810839574e-15	1.10097104491e+18	1.63204500078e-13	8.67810839574e-15
9	2.60998112837e+19	1.73944661017e-12	1.02037078034e-14	9.69244121804e+18	1.37002853001e-12	1.02037078034e-14	1.48608481658e+18	1.77899340393e-13	1.02037078034e-14
10	3.34770533192e+19	1.89315608729e-12	1.19975054688e-14	1.25714182561e+19	1.48871012885e-12	1.19975054688e-14	1.97573624648e+18	1.93875053357e-13	1.19975054688e-14
11	4.24277520923e+19	2.06078913448e-12	1.41066502734e-14	1.60716172022e+19	1.61755922422e-12	1.41066502734e-14	2.58472574185e+18	2.11239637889e-13	1.41066502734e-14
12	5.30552123361e+19	2.2435532522e-12	1.65865798064e-14	2.02223088109e+19	1.75742499109e-12	1.65865798064e-14	3.32369505326e+18	2.30108745323e-13	1.65865798064e-14
13	6.53645204335e+19	2.44274395233e-12	1.95024775083e-14	2.50085561501e+19	1.90922129087e-12	1.95024775083e-14	4.19565222762e+18	2.50605993301e-13	1.95024775083e-14
14	7.92170092037e+19	2.65975151406e-12	2.29309859778e-14	3.03532116234e+19	2.07392998716e-12	2.29309859778e-14	5.19208154155e+18	2.72863375125e-13	2.29309859778e-14
15	9.42917151741e+19	2.89607117615e-12	2.69622214763e-14	3.6107087019e+19	2.25260537802e-12	2.69622214763e-14	6.28903340929e+18	2.97021736801e-13	2.69622214763e-14
16	1.10033328665e+20	3.15331438053e-12	3.17021425786e-14	4.20218152342e+19	2.44673832733e-12	3.17021425786e-14	7.44402873791e+18	3.2323135324e-13	3.17021425786e-14
17	1.25654848136e+20	3.43322593285e-12	3.727533523e-14	4.77674670699e+19	2.66560956113e-12	3.727533523e-14	8.59490353764e+18	3.51652609757e-13	3.727533523e-14
18	1.40147090567e+20	3.73769893219e-12	4.38282874119e-14	5.2933413984e+19	2.90492145419e-12	4.38282874119e-14	9.66171691908e+18	3.82456760897e-13	4.38282874119e-14
19	1.52345446583e+20	4.06878599713e-12	5.15332394896e-14	5.70660206633e+19	3.16658697316e-12	5.15332394896e-14	1.05526294648e+19	4.15826714287e-13	5.15332394896e-14
20	1.61044167589e+20	4.42869338847e-12	6.05927114452e-14	5.97189716295e+19	3.45340208078e-12	6.05927114452e-14	1.11740145207e+19	4.51903970045e-13	6.05927114452e-14
21	1.65154775064e+20	4.81973250785e-12	7.12448259929e-14	6.05185840612e+19	3.76801501007e-12	7.12448259929e-14	1.14440282136e+19	4.91006382091e-13	7.12448259929e-14
22	1.63890114952e+20	5.24417542309e-12	8.37695674892e-14	5.92350191961e+19	4.11327576502e-12	8.37695674892e-14	1.13075952186e+19	5.33302931338e-13	8.37695674892e-14
23	1.56937498576e+20	5.70391394444e-12	9.84961411516e-14	5.58413345833e+19	4.49232052437e-12	9.84961411516e-14	1.07496752901e+19	5.79029464009e-13	9.84961411516e-14
24	1.44581572882e+20	6.19978047451e-12	1.15811626018e-13	5.05468306578e+19	4.90862674489e-12	1.15811626018e-13	9.80318109958e+18	6.28434516055e-13	1.15811626018e-13
25	1.27732324492e+20	6.73052138605e-12	1.36171149084e-13	4.37875171698e+19	5.36599805153e-12	1.36171149084e-13	8.54844212875e+18	6.81770522233e-13	1.36171149084e-13
26	1.07836267848e+20	7.29219944435e-12	1.60109848039e-13	3.61724490397e+19	5.86855041106e-12	1.60109848039e-13	7.10285568438e+18	7.39282003485e-13	1.60109848039e-13
27	8.66634239131e+19	7.88034648915e-12	1.88256937034e-13	2.83834431242e+19	6.42115809496e-12	1.88256937034e-13	5.60204452397e+18	8.01257543511e-13	1.88256937034e-13
28	6.60243906402e+19	8.49615375447e-12	2.21352245197e-13	2.10653631229e+19	7.02905184855e-12	2.21352245197e-13	4.17657653854e+18	8.6796584808e-13	2.21352245197e-13
29	4.74685137766e+19	9.15031666239e-12	2.60265662586e-13	1.4719575739e+19	7.69799271244e-12	2.60265662586e-13	2.93011391969e+18	9.39667591456e-13	2.60265662586e-13
30	3.20478078646e+19	9.85909912631e-12	3.06020004727e-13	9.6351630523e+18	8.43430176417e-12	3.06020004727e-13	1.9248317199e+18	1.01660609851e-12	3.06020004727e-13
31	2.02099055622e+19	1.06295002089e-11	3.59817896693e-13	5.87638460637e+18	9.2448873875e-12	3.59817896693e-13	1.17763012107e+18	1.09899529629e-12	3.59817896693e-13
32	1.18353486634e+19	1.14549479478e-11	4.23073383375e-13	3.31951655879e+18	1.01372686638e-11	4.23073383375e-13	6.67099630266e+17	1.18700435712e-12	4.23073383375e-13
33	6.3961605214e+18	1.23468378441e-11	4.97449096796e-13	1.72575951025e+18	1.11195941673e-11	4.97449096796e-13	3.47675654586e+17	1.28073838346e-12	4.97449096796e-13
34	3.1682267884e+18	1.32976003374e-11	5.84899957375e-13	8.19974232507e+17	1.22006540057e-11	5.84899957375e-13	1.65560139006e+17	1.3802144398e-12	5.84899957375e-13
35	1.42779590748e+18	1.43043810784e-11	6.87724557831e-13	3.53398902785e+17	1.33898848233e-11	6.87724557831e-13	7.14944935208e+16	1.48533225231e-12	6.87724557831e-13
36	5.8075813011e+17	1.53636547714e-11	8.0862558029e-13	1.37030689057e+17	1.46973677813e-11	8.0862558029e-13	2.77703940348e+16	1.59583899722e-12	8.0862558029e-13
37	2.11371298033e+17	1.64705778972e-11	9.50780834643e-13	4.73813172048e+16	1.61338233493e-11	9.50780834643e-13	9.61697710019e+15	1.7112878415e-12	9.50780834643e-13
38	6.81947746846e+16	1.76182948779e-11	1.11792678535e-12	1.44694174452e+16	1.7710610299e-11	1.11792678535e-12	2.94082349099e+15	1.83099033745e-12	1.11792678535e-12
39	1.93068475776e+16	1.87972721821e-11	1.31445676213e-12	3.86203495422e+15	1.94397435319e-11	1.31445676213e-12	7.85859249661e+14	1.95396348071e-12	1.31445676213e-12
40	4.74426533395e+15	1.99946711121e-11	1.54553643598e-12	8.90814463009e+14	2.1333954233e-11	1.54553643598e-12	1.8144843092e+14	2.07887329696e-12	1.54553643598e-12
41	9.99948945269e+14	2.11937658746e-11	1.81723959566e-12	1.75400387081e+14	2.34068285914e-11	1.81723959566e-12	3.5757306165e+13	2.20397828634e-12	1.81723959566e-12
42	1.78473326583e+14	2.23734349508e-11	2.1367077936e-12	2.90914052978e+13	2.5673077516e-11	2.1367077936e-12	5.9346955365e+12	2.32707796031e-12	2.1367077936e-12
43	2.66034160228e+13	2.35077841779e-11	2.5123380572e-12	4.0060923032e+12	2.81490087849e-11	2.5123380572e-12	817680794309.0	2.44547399562e-12	2.5123380572e-12
44	3.26257466394e+12	2.45659909432e-11	2.95400359963e-12	450920897090.0	3.08532942822e-11	2.95400359963e-12	92070385435.3	2.55595401898e-12	2.95400359963e-12
45	323891795641.0	2.55124850339e-11	3.47331333123e-12	40788040138.3	3.3808144879e-11	3.47331333123e-12	8329731072.83	2.65481034217e-12	3.47331333123e-12
46	25576076169.8	2.63075977259e-11	4.08391699266e-12	2910905507.74	3.70410193927e-11	4.08391699266e-12	594452965.565	2.73790746095e-12	4.08391699266e-12
47	1576193821.28	2.690880956e-11	4.80186393003e-12	160665897.844	4.05869957571e-11	4.80186393003e-12	32802298.3582	2.80081194771e-12	4.80186393003e-12
48	74265439.7509	2.72726997628e-11	5.64602494223e-12	6711671.53573	4.44919138729e-11	5.64602494223e-12	1369566.92112	2.83899549016e-12	5.64602494223e-12
49	2616220.96288	2.73576378356e-11	6.63858828837e-12	207287.826324	4.88163536565e-11	6.63858828837e-12	42262.1810675	2.84811532394e-12	6.63858828837e-12
50	67260.7415161	2.71271560069e-11	7.80564289273e-12	4614.5355371	5.36404350294e-11	7.80564289273e-12	939.607028602	2.82436569257e-12	7.80564289273e-12
51	1229.25282741	2.65538041044e-11	9.17786407624e-12	72.0361746374	5.90693220582e-11	9.17786407624e-12	14.6409189476	2.76487967523e-12	9.17786407624e-12
52	15.521250733	2.56231325772e-11	1.07913198387e-11	0.765439816131	6.5239194429e-11	1.07913198387e-11	0.155169886907	2.66814447363e-12	1.07913198387e-11
53	0.131269238274	2.43373047885e-11	1.26884188841e-11	0.00536064282755	7.23233393923e-11	1.26884188841e-11	0.00108281635721	2.53437816637e-12	1.26884188841e-11
54	0.000719001818237	2.27177458518e-11	1.49190253079e-11	2.3896828138e-05	8.0537947429e-11	1.49190253079e-11	4.80298275261e-06	2.36580613925e-12	1.49190253079e-11
55	2.4588993821e-06	2.08062321399e-11	1.7541769244e-11	6.53050989256e-08	9.01471962043e-11	1.7541769244e-11	1.30342408575e-08	2.16677505427e-12	1.7541769244e-11
56	5.04583278865e-09	1.86639412642e-11	2.06255879229e-11	1.05061060231e-10	1.01467301388e-10	2.06255879229e-11	2.07645670439e-11	1.94365425844e-12	2.06255879229e-11
57	5.95275709906e-12	1.63682213563e-11	2.4251537644e-11	9.75223777025e-14	1.14869402148e-10	2.4251537644e-11	2.08280465042e-14	1.70449943686e-12	2.4251537644e-11
58	6.98159383928e-15	1.40071756777e-11	2.8514924292e-11	3.18005496986e-15	1.30781412407e-10	2.8514924292e-11	3.14246381316e-15	1.45848845885e-12	2.8514924292e-11
59	4.33349832762e-15	1.1672540483e-11	3.35278083937e-11	4.33221313814e-15	1.49689262996e-10	3.35278083937e-11	4.33220368533e-15	1.21517918108e-12	3.35278083937e-11
60	5.98927912919e-15	9.45168774459e-12	3.94219505607e-11	5.98927891509e-15	1.72138226389e-10	3.94219505607e-11	5.98927891394e-15	9.83675856197e-13	3.94219505607e-11
61	8.28019232356e-15	7.41983080916e-12	4.63522747375e-11	8.28019232354e-15	1.98735192313e-10	4.63522747375e-11	8.28019232354e-15	7.71816511112e-13	4.63522747375e-11
62	1.14473855539e-14	5.63358096605e-12	5.45009402828e-11	1.14473855539e-14	2.30152794762e-10	5.45009402828e-11	1.14473855539e-14	5.85500974642e-13	5.45009402828e-11
63	1.58260377174e-14	4.12685360503e-12	6.40821299176e-11	1.58260377174e-14	2.67136145344e-10	6.40821299176e-11	1.58260377174e-14	4.28263696846e-13	6.40821299176e-11
64	2.18795347334e-14	2.90975505539e-12	7.53476793882e-11	2.18795347334e-14	3.10512604269e-10	7.53476793882e-11	2.18795347334e-14	3.01157204262e-13	7.53476793882e-11
65	3.02485087358e-14	1.97055182521e-12	8.85936968151e-11	3.02485087358e-14	3.61204560707e-10	8.85936968151e-11	3.02485087358e-14	2.0295686119e-13	8.85936968151e-11
66	4.18186351717e-14	1.28024372686e-12	1.04168345715e-10	4.18186351717e-14	4.20244681735e-10	1.04168345715e-10	4.18186351717e-14	1.30637118789e-13	1.04168345715e-10
67	5.781436245e-14	7.98774839281e-13	1.22480996269e-10	5.781436245e-14	4.8879263088e-10	1.22480996269e-10	5.781436245e-14	8.00185965936e-14	1.22480996269e-10
68	7.99284934042e-14	4.81655602792e-13	1.44012985366e-10	7.99284934042e-14	6.31123105023e-12	1.44012985366e-10	7.99284934042e-14	4.87270277468e-14	1.44012985366e-10
69	1.10501331973e-13	3.04500855679e-16	1.69330268252e-10	1.10501331973e-13	4.36393456984e-20	1.69330268252e-10	1.10501331973e-13	6.7580750847e-21	1.69330268252e-10
70	1.52768353908e-13	2.24252846721e-25	1.99098294319e-10	1.52768353908e-13	6.13074694764e-29	1.99098294319e-10	1.52768353908e-13	4.21645494624e-30	1.99098294319e-10
71	2.11202612124e-13	3.22329712988e-35	2.34099498041e-10	2.11202612124e-13	1.52925059471e-38	2.34099498041e-10	2.11202612124e-13	2.76302400675e-33	2.34099498041e-10
72	2.91988112897e-13	4.34268643891e-41	2.75253864783e-10	2.91988112897e-13	1.67300618885e-45	2.75253864783e-10	2.91988112897e-13	2.9960707448e-33	2.75253864783e-10
73	4.03674259593e-13	4.7088708867e-41	3.23643112061e-10	4.03674259593e-13	1.81347794073e-45	3.23643112061e-10	4.03674259593e-13	3.24877369563e-33	3.23643112061e-10
74	5.5808062267e-13	5.10603103059e-41	3.80539121828e-10	5.5808062267e-13	1.96643198249e-45	3.80539121828e-10	5.5808062267e-13	3.52279023946e-33	3.80539121828e-10
75	7.71547786361e-13	5.53668864489e-41	4.47437371121e-10	7.71547786361e-13	2.13228654724e-45	4.47437371121e-10	7.71547786361e-13	3.8199180176e-33	4.47437371121e-10
76	1.06666664718e-12	6.00366898937e-41	5.26096239761e-10	1.06666664718e-12	2.31212969708e-45	5.26096239761e-10	1.06666664718e-12	4.14210628889e-33	5.26096239761e-10
77	1.4746691732e-12	6.51003561324e-41	6.18583228301e-10	1.4746691732e-12	2.50714126397e-45	6.18583228301e-10	1.4746691732e-12	4.49146871749e-33	6.18583228301e-10
78	2.0387336345e-12	7.05911045302e-41	7.27329301022e-10	2.0387336345e-12	2.71860058979e-45	7.27329301022e-10	2.0387336345e-12	4.8702972392e-33	7.27329301022e-10
79	2.81855409197e-12	7.65449562554e-41	8.55192782348e-10	2.81855409197e-12	2.94789491932e-45	8.55192782348e-10	2.81855409197e-12	5.28107709739e-33	8.55192782348e-10
