0-group 1-eemit(erg/ccm/s) 2-eabs(1/cm) 3-escat(1/cm) 4-aemit(erg/ccm/s) 5-aabs(1/cm) 6-ascat(1/cm) 7-hemit(erg/ccm/s) 8-habs(1/cm) 9-hscat(1/cm)
0	6.37358647294e+28	0.000243538060948	4.21236739522e-08	1.71762556775e+27	0.00222101677805	4.21236739522e-08	4.68943243549e+28	0.000361695831401	4.21236739522e-08
1	3.37269856487e+28	0.00022504942005	1.82705956142e-07	9.50489678549e+26	0.00216851483828	1.82705956142e-07	2.50789522837e+28	0.000339496469987	1.82705956142e-07
2	4.60966078032e+28	0.000222488411381	2.14825409571e-07	1.30702012882e+27	0.00216318461197	2.14825409571e-07	3.43211919834e+28	0.000336561993635	2.14825409571e-07
3	6.29602178944e+28	0.000219807776595	2.52591418319e-07	1.796550921e+27	0.00215751354909	2.52591418319e-07	4.69389810295e+28	0.000333478965845	2.52591418319e-07
4	8.59314652129e+28	0.000217004044514	2.96996638972e-07	2.46834319397e+27	0.0021514812998	2.96996638972e-07	6.41512369958e+28	0.000330241759126	2.96996638972e-07
5	1.17194998754e+29	0.000214073979398	3.49208235766e-07	3.38973424937e+27	0.00214506658042	3.49208235766e-07	8.76106955027e+28	0.000326844826578	3.49208235766e-07
6	1.59704863951e+29	0.000211014640579	4.10598558787e-07	4.65268968146e+27	0.00213824716908	4.10598558787e-07	1.19555449916e+29	0.000323282749657	4.10598558787e-07
7	2.17450277029e+29	0.000207823447082	4.82781215364e-07	6.38269205184e+27	0.00213099990509	4.82781215364e-07	1.63012147229e+29	0.000319550289566	4.82781215364e-07
8	2.95811014612e+29	0.00020449824756	5.67653482752e-07	8.75078115e+27	0.00212330069297	5.67653482752e-07	2.22067880273e+29	0.000315642442339	5.67653482752e-07
9	4.02031739887e+29	0.000201037395969	6.67446176913e-07	1.19898366092e+28	0.00211512451168	6.67446176913e-07	3.02233186813e+29	0.000311554497752	6.67446176913e-07
10	5.45853832544e+29	0.000197439833482	7.84782288161e-07	1.64165586231e+28	0.00210644543031	7.84782288161e-07	4.10925518767e+29	0.000307282102169	7.84782288161e-07
11	7.40355328875e+29	0.000193705177172	9.2274592486e-07	2.24610837259e+28	0.00209723663103	9.2274592486e-07	5.58111497599e+29	0.000302821325413	9.2274592486e-07
12	1.00306522072e+30	0.000189833816071	1.08496337735e-06	3.07068043205e+28	0.00208747044067	1.08496337735e-06	7.571577311e+29	0.00029816873172	1.08496337735e-06
13	1.35743865119e+30	0.000185827015246	1.27569843277e-06	4.19437859241e+28	0.00207711837214	1.27569843277e-06	1.02595453605e+30	0.000293321454767	1.27569843277e-06
14	1.8348058341e+30	0.000181687028588	1.49996444612e-06	5.72402484254e+28	0.0020661511771	1.49996444612e-06	1.3883952953e+30	0.000288277276653	1.49996444612e-06
15	2.47694158296e+30	0.000177417221018	1.76365611327e-06	7.8037962498e+28	0.00205453891134	1.76365611327e-06	1.87631717799e+30	0.00028303471062	1.76365611327e-06
16	3.33944651547e+30	0.000173022200906	2.07370440939e-06	1.06279445675e+29	0.00204225596062	2.07370440939e-06	2.53203744576e+30	0.000277593087126	2.07370440939e-06
17	4.4961884771e+30	0.000168507963529	2.43825876552e-06	1.44583059523e+29	0.00202936898821	2.43825876552e-06	3.41165447052e+30	0.000271952642748	2.43825876552e-06
18	6.04512790074e+30	0.000163882046477	2.86690127132e-06	1.96452093311e+29	0.0020157705239	2.86690127132e-06	4.58932477314e+30	0.000266114611172	2.86690127132e-06
19	8.11594992947e+30	0.000159153698023	3.37089853453e-06	2.66580462756e+29	0.00200143673141	3.37089853453e-06	6.16277757049e+30	0.000260081315319	3.37089853453e-06
20	1.08800582843e+31	0.000154334059624	3.96349781689e-06	3.61236969706e+29	0.0019863505719	3.96349781689e-06	8.26038684488e+30	0.000253856259431	3.96349781689e-06
21	1.45636647084e+31	0.000149436363893	4.66027523035e-06	4.88769772043e+29	0.00197049237067	4.66027523035e-06	1.10501875512e+31	0.000247444219669	4.66027523035e-06
22	1.94649543153e+31	0.000144476149663	5.47954514571e-06	6.60264142451e+29	0.00195384402907	5.47954514571e-06	1.47512959395e+31	0.000240851331522	5.47954514571e-06
23	2.59766541209e+31	0.000139471496089	6.44284157476e-06	8.90393781338e+29	0.00193639014947	6.44284157476e-06	1.96482712022e+31	0.000234085172019	6.44284157476e-06
24	3.46158316641e+31	0.000134443278185	7.57548417863e-06	1.19851678581e+30	0.00191811887482	7.57548417863e-06	2.61090315584e+31	0.000227154834473	7.57548417863e-06
25	4.60634869183e+31	0.000129415446785	8.90724377975e-06	1.61007805177e+30	0.00189902274384	8.90724377975e-06	3.4607004008e+31	0.000220070993181	8.90724377975e-06
26	6.12176099299e+31	0.00012441533665	1.04731248698e-05	2.15839188328e+30	0.00187909963843	1.04731248698e-05	4.57482305096e+31	0.000212845955236	1.04731248698e-05
27	8.12650807759e+31	0.000119474007411	1.23142856814e-05	2.88689142097e+30	0.00185835385843	1.23142856814e-05	6.03041556644e+31	0.00020549369635	1.23142856814e-05
28	1.07780450168e+32	0.000114626623235	1.44791200076e-05	3.85194452575e+30	0.00183679734952	1.44791200076e-05	7.92507563589e+31	0.000198029877381	1.44791200076e-05
29	1.42863851215e+32	0.00010991287865	1.70245292027e-05	5.1263479578e+30	0.00181445110921	1.70245292027e-05	1.03814507742e+32	0.000190471838089	1.70245292027e-05
30	1.89337024685e+32	0.000105377479844	2.00174178004e-05	6.80362164127e+30	0.0017913467977	2.00174178004e-05	1.35525368076e+32	0.00018283856458	2.00174178004e-05
31	2.51027274464e+32	0.000101070693163	2.35364520584e-05	9.00323061142e+30	0.00176752858419	2.35364520584e-05	1.76276452713e+32	0.000175150626927	2.35364520584e-05
32	3.33186689072e+32	9.70489754619e-05	2.76741276533e-05	1.18768615886e+31	0.00174305526323	2.76741276533e-05	2.28389290484e+32	0.000167430083575	2.76741276533e-05
33	4.43122375491e+32	9.33757046043e-05	3.25392008731e-05	1.56158714436e+31	0.00171800268189	3.25392008731e-05	2.94682443572e+32	0.000159700349517	3.25392008731e-05
34	5.91159596705e+32	9.01220328844e-05	3.82595472106e-05	2.04600036293e+31	0.00169246652458	3.82595472106e-05	3.78539753726e+32	0.000151986025652	3.82595472106e-05
35	7.921347026e+32	8.73678916173e-05	4.49855224922e-05	2.67074341825e+31	0.00166656551091	4.49855224922e-05	4.83972494117e+32	0.000144312687516	4.49855224922e-05
36	1.06773663972e+33	8.52031818625e-05	5.28939148904e-05	3.47261609829e+31	0.00164044507147	5.28939148904e-05	6.15667226551e+32	0.000136706632504	5.28939148904e-05
37	1.45021387521e+33	8.37291944574e-05	6.21925916924e-05	4.49666913052e+31	0.00161428157766	6.21925916924e-05	7.79008211831e+32	0.000129194585917	6.21925916924e-05
38	1.98828517453e+33	8.30603126118e-05	7.31259629663e-05	5.79759202994e+31	0.00158828721587	7.31259629663e-05	9.80059908484e+32	0.000121803367664	7.31259629663e-05
39	2.75661458547e+33	8.33260627352e-05	8.59814057308e-05	7.4412039418e+31	0.00156271561261	8.59814057308e-05	1.22549166439e+33	0.000114559523192	8.59814057308e-05
40	3.87105744323e+33	8.46735945866e-05	0.000101096817485	9.50602875487e+31	0.0015378683366	0.000101096817485	1.52242357781e+33	0.000107488924182	0.000101096817485
41	5.51325628453e+33	8.72706912252e-05	0.000118869497641	1.20849381675e+32	0.00151410242789	0.000118869497641	1.87817032483e+33	0.000100616346731	0.000118869497641
42	7.97038859666e+33	9.13094340162e-05	0.000139766590292	1.52868560345e+32	0.00149183913136	0.000139766590292	2.29985942546e+33	9.39650369947e-05	0.000139766590292
43	1.16994687985e+34	9.70106802987e-05	0.00016433736282	1.92385351765e+32	0.00147157404574	0.00016433736282	2.7939031191e+33	8.7556276512e-05	0.00016433736282
44	1.74314366834e+34	0.00010462955471	0.000193227643044	2.40864416072e+32	0.00145388893848	0.000193227643044	3.36531012223e+33	8.14089615584e-05	0.000193227643044
45	2.63397023396e+34	0.000114462215143	0.000227196794423	2.99988022438e+32	0.00143946552385	0.000227196794423	4.01683649888e+33	7.55392125914e-05	0.000227196794423
46	4.03130940322e+34	0.000126854240037	0.000267137675452	3.7167871681e+32	0.0014291015568	0.000267137675452	4.74799495101e+33	6.99600310781e-05	0.000267137675452
47	6.23978795504e+34	0.000142211110555	0.000314100107913	4.58124179139e+32	0.00142372966075	0.000314100107913	5.55396970301e+33	6.46810214007e-05	0.000314100107913
48	9.75135391613e+34	0.000161011455233	0.000369318470801	5.61802645191e+32	0.00142443938428	0.000369318470801	6.42451933734e+33	5.97081949394e-05	0.000369318470801
49	1.53611690089e+35	0.000183824031342	0.000434244145222	6.85503895334e+32	0.00143250307249	0.000434244145222	7.34299015384e+33	5.50438716311e-05	0.000434244145222
50	2.43552217961e+35	0.000211329916122	0.000510583663065	8.32334939957e+32	0.0014494062453	0.000510583663065	8.28560312048e+33	5.06832353799e-05	0.000510583663065
51	3.88139771557e+35	0.000244352215422	0.000600343562159	1.00569058528e+33	0.00147688329964	0.000600343562159	9.22121056979e+33	4.66269316752e-05	0.000600343562159
52	6.21036670507e+35	0.000283897027723	0.000705883126895	1.20915709944e+33	0.00151695949952	0.000705883126895	1.0111733871e+34	4.28660941036e-05	0.000705883126895
53	9.96707789577e+35	0.000331211912051	0.000829976400585	1.44630357603e+33	0.00157200038904	0.000829976400585	1.09134777427e+34	3.93881392965e-05	0.000829976400585
54	1.6032585789e+36	0.000387872613076	0.000975885099503	1.72030379478e+33	0.00164476996529	0.000975885099503	1.15794580797e+34	3.61794255653e-05	0.000975885099503
55	2.5831542424e+36	0.000455917054032	0.00114744434512	2.03332773423e+33	0.00173849918337	0.00114744434512	1.2062769108e+34	3.32243722991e-05	0.00114744434512
56	4.16659225254e+36	0.000538061058145	0.00134916346793	2.38565568332e+33	0.00185696664216	0.00134916346793	1.23208515198e+34	3.05060571737e-05	0.00134916346793
57	6.72508386838e+36	0.000638059740862	0.00158634453247	2.77451014287e+33	0.00200459362228	0.00158634453247	1.23203184776e+34	2.80068358466e-05	0.00158634453247
58	1.08570299122e+37	0.000761335805471	0.00186522169886	3.19268074707e+33	0.00218655602494	0.00186522169886	1.20417807452e+34	2.57089500362e-05	0.00186522169886
59	1.75231854157e+37	0.000916109064105	0.00219312508392	3.62713690201e+33	0.0024089161984	0.00219312508392	1.14839331583e+34	2.35950907667e-05	0.00219312508392
60	2.82578050577e+37	0.00111548724328	0.00257867342883	4.05796756944e+33	0.00267877814378	0.00257867342883	1.06660819215e+34	2.164888815e-05	0.00257867342883
61	4.54886066058e+37	0.00138143003038	0.0030320006375	4.45812012023e+33	0.00300447016226	0.0030320006375	9.62836477403e+33	1.98553073882e-05	0.0030320006375
62	7.29956788961e+37	0.00175239154904	0.00356502214007	4.79446761576e+33	0.00339575962776	0.00356502214007	8.42918209726e+33	1.82009420149e-05	0.00356502214007
63	1.16494234486e+38	0.00229774201912	0.00419174808277	5.0306383746e+33	0.00386410518898	0.00419174808277	7.13981118498e+33	1.66742079577e-05	0.00419174808277
64	1.84148477791e+38	0.00314736549075	0.00492865157607	5.13172825563e+33	0.00442295219263	0.00492865157607	5.83675203239e+33	1.52654517671e-05	0.00492865157607
65	2.86298334569e+38	0.00454112446886	0.00579510168041	5.07047688492e+33	0.00508807719611	0.00579510168041	4.59292335851e+33	1.39669847741e-05	0.00579510168041
66	4.32466759095e+38	0.00690945636043	0.00681387251015	4.83381989188e+33	0.00587798664699	0.00681387251015	3.46922747234e+33	1.27730257499e-05	0.00681387251015
67	6.22075763079e+38	0.0109505168095	0.00801174183735	4.42814975804e+33	0.00681426605466	0.00801174183735	2.50808154817e+33	1.1679284094e-05	0.00801174183735
68	8.27263439932e+38	0.0175649863524	0.00942019492919	3.88143034356e+33	0.00792209001904	0.00942019492919	1.730196254e+33	1.06824717914e-05	0.00942019492919
69	9.81852724429e+38	0.0274090770112	0.0110762521191	3.24077701681e+33	0.00923120206523	0.0110762521191	1.13520360271e+33	9.77968607184e-06	0.0110762521191
70	1.01077966447e+39	0.0401974019086	0.0130234418639	2.56528287014e+33	0.0107761382109	0.0130234418639	7.05801610759e+32	8.96613859324e-06	0.0130234418639
71	8.95173881394e+38	0.0547106872591	0.0153129448623	1.91544788975e+33	0.0125972391398	0.0153129448623	4.14085173346e+32	8.23503869107e-06	0.0153129448623
72	6.90654951461e+38	0.0698590814329	0.0180049393093	1.34196669377e+33	0.0147417283068	0.0180049393093	2.28153972986e+32	7.57869751568e-06	0.0180049393093
73	4.73741265318e+38	0.0855347677777	0.0211701826426	8.77178714513e+32	0.0172649719829	0.0211701826426	1.1744950372e+32	6.99011949585e-06	0.0211701826426
74	2.9347862086e+38	0.10221513429	0.0248918713593	5.31715881903e+32	0.0202318883579	0.0248918713593	5.61787274099e+31	6.46373359662e-06	0.0248918713593
75	1.65385415027e+38	0.120838941902	0.0292678277855	2.96959297298e+32	0.0237185413172	0.0292678277855	2.48232234278e+31	5.99521492573e-06	0.0292678277855
76	8.47996066276e+37	0.142170436688	0.034413071276	1.5174322941e+32	0.0278139873273	0.034413071276	1.00693448789e+31	5.58100245212e-06	0.034413071276
77	3.93952887514e+37	0.166955295541	0.0404628414286	7.04130882509e+31	0.0326224369664	0.0404628414286	3.72454385961e+30	5.21789206692e-06	0.0404628414286
78	1.64715152014e+37	0.195927375901	0.0475761527748	2.94313889705e+31	0.0382657849998	0.0475761527748	1.2470434298e+30	4.90278197812e-06	0.0475761527748
79	6.14751006976e+36	0.229893567165	0.0559399743799	1.09846158706e+31	0.0448865659022	0.0559399743799	3.74906713567e+29	4.6325289733e-06	0.0559399743799
