0-group 1-eemit(erg/ccm/s) 2-eabs(1/cm) 3-escat(1/cm) 4-aemit(erg/ccm/s) 5-aabs(1/cm) 6-ascat(1/cm) 7-hemit(erg/ccm/s) 8-habs(1/cm) 9-hscat(1/cm)
0	1.07528882237e+18	1.86920783554e-13	2.67226713623e-16	2.88322791682e+17	1.37329154301e-13	2.67226713623e-16	2.17608909859e+16	1.59400214583e-14	2.67226713623e-16
1	7.23172694192e+17	2.93745026811e-13	1.15906110836e-15	3.51838164809e+17	2.36952244639e-13	1.15906110836e-15	4.02509601624e+16	2.81804941323e-14	1.15906110836e-15
2	9.86280745993e+17	3.19116066763e-13	1.36282244202e-15	4.97651227902e+17	2.57645571082e-13	1.36282244202e-15	5.91203117887e+16	3.07875122198e-14	1.36282244202e-15
3	1.33554008237e+18	3.46742248632e-13	1.60240473524e-15	6.95352061963e+17	2.80090259644e-13	1.60240473524e-15	8.56779706576e+16	3.36199079058e-14	1.60240473524e-15
4	1.79423810744e+18	3.76831513901e-13	1.88410526298e-15	9.59534619958e+17	3.04438695812e-13	1.88410526298e-15	1.22471026447e+17	3.66970631277e-14	1.88410526298e-15
5	2.38953135146e+18	4.09609941914e-13	2.2153283524e-15	1.30714255428e+18	3.30856334797e-13	2.2153283524e-15	1.72600930228e+17	4.00400333823e-14	2.2153283524e-15
6	3.15188282005e+18	4.45322856011e-13	2.60478000108e-15	1.75702931108e+18	3.59522629747e-13	2.60478000108e-15	2.3969855705e+17	4.36716649774e-14	2.60478000108e-15
7	4.11375499111e+18	4.84235914844e-13	3.06269670891e-15	2.32904421698e+18	3.90631959959e-13	3.06269670891e-15	3.27806348511e+17	4.76167082405e-14	3.06269670891e-15
8	5.3069638612e+18	5.26635981916e-13	3.60111453821e-15	3.04217399915e+18	4.2439430288e-13	3.60111453821e-15	4.41127094388e+17	5.19019270685e-14	3.60111453821e-15
9	6.75908686177e+18	5.72832611548e-13	4.23418547439e-15	3.91226118601e+18	4.61036436732e-13	4.23418547439e-15	5.83599426609e+17	5.65562050144e-14	4.23418547439e-15
10	8.48945617399e+18	6.23159852363e-13	4.97854940223e-15	4.94992588456e+18	5.00803273563e-13	4.97854940223e-15	7.58278409579e+17	6.16106516261e-14	4.97854940223e-15
11	1.0505861771e+19	6.7797827258e-13	5.85377147513e-15	6.15973401878e+18	5.43959063094e-13	5.85377147513e-15	9.66610589397e+17	6.7098730985e-14	5.85377147513e-15
12	1.27846247781e+19	7.3767359845e-13	6.88285637333e-15	7.523410645e+18	5.90784650897e-13	6.88285637333e-15	1.20741673646e+18	7.30563250245e-14	6.88285637333e-15
13	1.52724527126e+19	8.02664232245e-13	8.09285296789e-15	9.00507328461e+18	6.41583078422e-13	8.09285296789e-15	1.47581275755e+18	7.95218450055e-14	8.09285296789e-15
14	1.78775525026e+19	8.73404050389e-13	9.51556528387e-15	1.0545268508e+19	6.96679397962e-13	9.51556528387e-15	1.76235787107e+18	8.65363790757e-14	9.51556528387e-15
15	2.04662624902e+19	9.5038755144e-13	1.11883884498e-14	1.20593260916e+19	7.56421766088e-13	1.11883884498e-14	2.05260904074e+18	9.41438393462e-14	1.11883884498e-14
16	2.28707087451e+19	1.03415664132e-12	1.31552916057e-14	1.34445751258e+19	8.21330545358e-13	1.31552916057e-14	2.32737964987e+18	1.02391114689e-13	1.31552916057e-14
17	2.48939610714e+19	1.1253079402e-12	1.54679736058e-14	1.4581988467e+19	8.9516301816e-13	1.54679736058e-14	2.56399306134e+18	1.11328225921e-13	1.54679736058e-14
18	2.63338588957e+19	1.22450238122e-12	1.81872218906e-14	1.53529595053e+19	9.76043681493e-13	1.81872218906e-14	2.738591575e+18	1.2100846611e-13	1.81872218906e-14
19	2.7009285487e+19	1.33247560591e-12	2.13845102486e-14	1.565520545e+19	1.06461760256e-12	2.13845102486e-14	2.82943443619e+18	1.31488510335e-13	2.13845102486e-14
20	2.6791025309e+19	1.45004933029e-12	2.51438774609e-14	1.54210939696e+19	1.16190008052e-12	2.51438774609e-14	2.82069349967e+18	1.42815635504e-13	2.51438774609e-14
21	2.56306552156e+19	1.57814247967e-12	2.95641362099e-14	1.46340073254e+19	1.26883133191e-12	2.95641362099e-14	2.70600871338e+18	1.55081557329e-13	2.95641362099e-14
22	2.35800551493e+19	1.71777895031e-12	3.47614703099e-14	1.33381772221e+19	1.38642342967e-12	3.47614703099e-14	2.49088540203e+18	1.683393095e-13	3.47614703099e-14
23	2.07954717165e+19	1.8700830544e-12	4.08724885291e-14	1.163885382e+19	1.51578693458e-12	4.08724885291e-14	2.19307540047e+18	1.82658314699e-13	4.08724885291e-14
24	1.75202378113e+19	2.03623682712e-12	4.80578152668e-14	9.68902516604e+18	1.65809875969e-12	4.80578152668e-14	1.84047328456e+18	1.98102708336e-13	4.80578152668e-14
25	1.40482163238e+19	2.21732499221e-12	5.65063124693e-14	7.66512718403e+18	1.81478253962e-12	5.65063124693e-14	1.46672326484e+18	2.14751451832e-13	5.65063124693e-14
26	1.06767237019e+19	2.4138620325e-12	6.64400437504e-14	5.73858951525e+18	1.9873671874e-12	6.64400437504e-14	1.10542471872e+18	2.32677506894e-13	6.64400437504e-14
27	7.65741246891e+18	2.62451550765e-12	7.81201111992e-14	4.04759061122e+18	2.17754515431e-12	7.81201111992e-14	7.84388574326e+17	2.51951972786e-13	7.81201111992e-14
28	5.15757847094e+18	2.84347723617e-12	9.18535182893e-14	2.67624071431e+18	2.38718244893e-12	9.18535182893e-14	5.21481279079e+17	2.72641672779e-13	9.18535182893e-14
29	3.24530299109e+18	3.05889681752e-12	1.08001239279e-13	1.64992996121e+18	2.61832814791e-12	1.08001239279e-13	3.2310865139e+17	2.94806010852e-13	1.08001239279e-13
30	1.89689391681e+18	3.26301872449e-12	1.269877072e-13	9.42970993396e+17	2.87322327958e-12	1.269877072e-13	1.855040988e+17	3.1849294598e-13	1.269877072e-13
31	1.02357561997e+18	3.47089739326e-12	1.49311969821e-13	4.96439200715e+17	3.15430895491e-12	1.49311969821e-13	9.80680209676e+16	3.43733912961e-13	1.49311969821e-13
32	5.06501703479e+17	3.70537838997e-12	1.75560806817e-13	2.39111107391e+17	3.46423349359e-12	1.75560806817e-13	4.74139964203e+16	3.70537504058e-13	1.75560806817e-13
33	2.28173902199e+17	3.97002305538e-12	2.06424152915e-13	1.04581545551e+17	3.80585812032e-12	2.06424152915e-13	2.08099732792e+16	3.9888172713e-13	2.06424152915e-13
34	9.28453050352e+16	4.25136479892e-12	2.42713232406e-13	4.12030821877e+16	4.18226151709e-12	2.42713232406e-13	8.2248043331e+15	4.28704677613e-13	2.42713232406e-13
35	3.38343818833e+16	4.55627708537e-12	2.8538188169e-13	1.44947473384e+16	4.59674394345e-12	2.8538188169e-13	2.90183597434e+15	4.59893520909e-13	2.8538188169e-13
36	1.09409412714e+16	4.87463283852e-12	3.35551620279e-13	4.50993520857e+15	5.05283317383e-12	3.35551620279e-13	9.05300809884e+14	4.92271790449e-13	3.35551620279e-13
37	3.10822538804e+15	5.20274248983e-12	3.94541129259e-13	1.22836529099e+15	5.55429610286e-12	3.94541129259e-13	2.47180774872e+14	5.255851879e-13	3.94541129259e-13
38	7.67432479365e+14	5.5367605617e-12	4.63900912018e-13	2.89615047902e+14	6.10516262747e-12	4.63900912018e-13	5.84099131362e+13	5.5948634213e-13	4.63900912018e-13
39	1.62766751543e+14	5.872059628e-12	5.4545404829e-13	5.83959914365e+13	6.70977185606e-12	5.4545404829e-13	1.18017158968e+13	5.93519365803e-13	5.4545404829e-13
40	2.92821416489e+13	6.20289375861e-12	6.41344112694e-13	9.93789222402e+12	7.37285520213e-12	6.41344112694e-13	2.01224461879e+12	6.27105547567e-13	6.41344112694e-13
41	4.40779618098e+12	6.5222206321e-12	7.54091517291e-13	1.40719964561e+12	8.0996764794e-12	7.54091517291e-13	285430106700.0	6.59532127551e-13	7.54091517291e-13
42	547029618269.0	6.82162784989e-12	8.86659759082e-13	163247049440.0	8.89625508367e-12	8.86659759082e-13	33165327732.5	6.89946777645e-13	8.86659759082e-13
43	55085633845.1	7.0913626321e-12	1.04253331373e-12	15257042893.3	9.76970431396e-12	1.04253331373e-12	3104188091.65	7.1736105069e-13	1.04253331373e-12
44	4423920911.91	7.32049053109e-12	1.22580922287e-12	1128039308.33	1.07287213549e-11	1.22580922287e-12	229820327.426	7.40666515286e-13	1.22580922287e-12
45	278103951.401	7.49721711729e-12	1.44130478239e-12	64689378.8977	1.17842665607e-11	1.44130478239e-12	13195778.4005	7.58667327502e-13	1.44130478239e-12
46	13410891.5513	7.60940245485e-12	1.69468416209e-12	2816423.59573	1.2950465413e-11	1.69468416209e-12	575165.796896	7.70132334489e-13	1.69468416209e-12
47	485341.743626	7.64528283586e-12	1.99260728495e-12	90956.9998224	1.42457546e-11	1.99260728495e-12	18594.4180334	7.73868195761e-13	1.99260728495e-12
48	12872.5723816	7.59438750422e-12	2.3429048792e-12	2124.77886332	1.56942728631e-11	2.3429048792e-12	434.78280982	7.68812288807e-13	2.3429048792e-12
49	243.848834893	7.44860105574e-12	2.75478430417e-12	34.9361253376	1.73274682036e-11	2.75478430417e-12	7.15497457227	7.54140408628e-13	2.75478430417e-12
50	3.20818516514	7.20327898675e-12	3.23907156021e-12	0.392520596141	1.91858590196e-11	3.23907156021e-12	0.0804516054067	7.29379888837e-13	3.23907156021e-12
51	0.0284360568289	6.85828234422e-12	3.80849584351e-12	0.00291834153833	2.13208541636e-11	3.80849584351e-12	0.000598565942447	6.94514559573e-13	3.80849584351e-12
52	0.000164277903717	6.41876837168e-12	4.47802412524e-12	1.38669063265e-05	2.3796514504e-11	4.47802412524e-12	2.84592310364e-06	6.50065007027e-13	4.47802412524e-12
53	5.96692623022e-07	5.89556881599e-12	5.26525454936e-12	4.05510942593e-08	2.6691135516e-11	5.26525454936e-12	8.32675289622e-09	5.9712706268e-13	5.26525454936e-12
54	1.31028736725e-09	5.30501471256e-12	6.19087898908e-12	7.00550473695e-11	3.00985534556e-11	6.19087898908e-12	1.43919453916e-11	5.37354196778e-13	6.19087898908e-12
55	1.66809247969e-12	4.66812841004e-12	7.2792269202e-12	6.95781644855e-14	3.4129128455e-11	7.2792269202e-12	1.52399366008e-14	4.72875765158e-13	7.2792269202e-12
56	2.81237374118e-15	4.00919453971e-12	8.5589049066e-12	1.67545961524e-15	3.89104313058e-11	8.5589049066e-12	1.6468892758e-15	4.06152275707e-13	8.5589049066e-12
57	2.26704443204e-15	3.35382769338e-12	1.00635485064e-11	2.26662008089e-15	4.45877450962e-11	1.00635485064e-11	2.26661240082e-15	3.39779593977e-13	1.00635485064e-11
58	3.13359436112e-15	2.7267559626e-12	1.1832706362e-11	3.13359428241e-15	5.13245718804e-11	1.1832706362e-11	3.13359428141e-15	2.76264290562e-13	1.1832706362e-11
59	4.33220153643e-15	2.14961411823e-12	1.39128797124e-11	4.33220153642e-15	5.93033901108e-11	1.39128797124e-11	4.33220153642e-15	2.17799906e-13	1.39128797124e-11
60	5.98927891369e-15	1.63906800747e-12	1.63587446497e-11	5.98927891369e-15	6.87269243993e-11	1.63587446497e-11	5.98927891369e-15	1.66076736194e-13	1.63587446497e-11
61	8.28019232354e-15	1.20555939083e-12	1.92345892474e-11	8.28019232354e-15	7.98201544834e-11	1.92345892474e-11	8.28019232354e-15	1.22154470249e-13	1.92345892474e-11
62	1.14473855539e-14	8.52866127513e-13	2.26160033326e-11	1.14473855539e-14	9.2833203407e-11	2.26160033326e-11	1.14473855539e-14	8.64174583762e-14	2.26160033326e-11
63	1.58260377174e-14	5.78529745576e-13	2.65918653193e-11	1.58260377174e-14	1.08045116082e-10	2.65918653193e-11	1.58260377174e-14	5.86179070292e-14	2.65918653193e-11
64	2.18795347334e-14	3.75039984844e-13	3.12666783234e-11	2.18795347334e-14	1.2576839091e-10	3.12666783234e-11	2.18795347334e-14	3.7995829316e-14	3.12666783234e-11
65	3.02485087358e-14	2.31523271238e-13	3.67633169634e-11	3.02485087358e-14	1.4635398931e-10	3.67633169634e-11	3.02485087358e-14	2.34501145619e-14	3.67633169634e-11
66	4.18186351717e-14	1.35598031083e-13	4.32262570449e-11	4.18186351717e-14	7.06034169083e-13	4.32262570449e-11	4.18186351717e-14	1.37265525631e-14	4.32262570449e-11
67	5.781436245e-14	5.54523925864e-14	5.08253730198e-11	5.781436245e-14	6.11134689628e-21	5.08253730198e-11	5.781436245e-14	3.6260991223e-20	5.08253730198e-11
68	7.99284934042e-14	4.46470104724e-23	5.97604030329e-11	7.99284934042e-14	1.09533190116e-29	5.97604030329e-11	7.99284934042e-14	2.91119221538e-29	5.97604030329e-11
69	1.10501331973e-13	6.13086765391e-33	7.02661989173e-11	1.10501331973e-13	3.55830482259e-39	7.02661989173e-11	1.10501331973e-13	4.77555802601e-33	7.02661989173e-11
70	1.52768353908e-13	3.46630157461e-39	8.26188991323e-11	1.52768353908e-13	3.16794171716e-43	8.26188991323e-11	1.52768353908e-13	5.17835241026e-33	8.26188991323e-11
71	2.11202612124e-13	3.75852545226e-39	9.71431868951e-11	2.11202612124e-13	3.43513394574e-43	9.71431868951e-11	2.11202612124e-13	5.61512377249e-33	9.71431868951e-11
72	2.91988112897e-13	4.07553133946e-39	1.14220824282e-10	2.91988112897e-13	3.72486379506e-43	1.14220824282e-10	2.91988112897e-13	6.08873351366e-33	1.14220824282e-10
73	4.03674259593e-13	4.41927428855e-39	1.34300686611e-10	4.03674259593e-13	4.03903017799e-43	1.34300686611e-10	4.03674259593e-13	6.60228867405e-33	1.34300686611e-10
74	5.5808062267e-13	4.79200936966e-39	1.5791056086e-10	5.5808062267e-13	4.37969413236e-43	1.5791056086e-10	5.5808062267e-13	7.15915834941e-33	1.5791056086e-10
75	7.71547786361e-13	5.19618185114e-39	1.85671018223e-10	7.71547786361e-13	4.74909052905e-43	1.85671018223e-10	7.71547786361e-13	7.76299579334e-33	1.85671018223e-10
76	1.06666664718e-12	5.63444324133e-39	2.18311725448e-10	1.06666664718e-12	5.14964273349e-43	2.18311725448e-10	1.06666664718e-12	8.41776238394e-33	2.18311725448e-10
77	1.4746691732e-12	6.10966868335e-39	2.56690623687e-10	1.4746691732e-12	5.58397850374e-43	2.56690623687e-10	1.4746691732e-12	9.1277536117e-33	2.56690623687e-10
78	2.0387336345e-12	6.62497581697e-39	3.01816478953e-10	2.0387336345e-12	6.05494722949e-43	3.01816478953e-10	2.0387336345e-12	9.89762725947e-33	3.01816478953e-10
79	2.81855409197e-12	7.18374523148e-39	3.54875396924e-10	2.81855409197e-12	6.56563862504e-43	3.54875396924e-10	2.81855409197e-12	1.0732433959e-32	3.54875396924e-10
