0-group 1-eemit(erg/ccm/s) 2-eabs(1/cm) 3-escat(1/cm) 4-aemit(erg/ccm/s) 5-aabs(1/cm) 6-ascat(1/cm) 7-hemit(erg/ccm/s) 8-habs(1/cm) 9-hscat(1/cm)
0	3.2024815538e+27	1.4332451033e-05	1.09642578279e-08	1.28881384121e+27	3.41786876868e-05	1.09642578279e-08	2.45184304058e+27	1.88659159631e-05	1.09642578279e-08
1	1.72467705606e+27	1.34959382058e-05	4.75560420513e-08	7.0435875777e+26	3.28731852473e-05	4.75560420513e-08	1.32092368201e+27	1.78289560182e-05	4.75560420513e-08
2	2.36524612113e+27	1.33927514251e-05	5.59163282192e-08	9.66917813603e+26	3.27128279857e-05	5.59163282192e-08	1.80967644298e+27	1.76904623859e-05	5.59163282192e-08
3	3.24253023195e+27	1.32858680871e-05	6.57463410882e-08	1.32671187427e+27	3.25436039094e-05	6.57463410882e-08	2.47783058646e+27	1.7544768612e-05	6.57463410882e-08
4	4.44354533849e+27	1.31753901425e-05	7.7304456572e-08	1.81945318651e+27	3.23651062049e-05	7.7304456572e-08	3.39057542474e+27	1.73915829203e-05	7.7304456572e-08
5	6.08714103393e+27	1.30614721026e-05	9.08944727112e-08	2.49383237144e+27	3.21769231785e-05	9.08944727112e-08	4.6364863182e+27	1.72306147126e-05	9.08944727112e-08
6	8.33561196887e+27	1.29443308058e-05	1.0687359482e-07	3.41617140176e+27	3.19786403077e-05	1.0687359482e-07	6.33577748041e+27	1.70615766365e-05	1.0687359482e-07
7	1.14105507199e+28	1.28242566331e-05	1.2566182441e-07	4.67671567476e+27	3.17698425255e-05	1.2566182441e-07	8.65140570109e+27	1.68841868273e-05	1.2566182441e-07
8	1.56145075616e+28	1.27016264068e-05	1.47752998678e-07	6.39812937881e+27	3.15501167566e-05	1.47752998678e-07	1.18039824124e+28	1.6698171332e-05	1.47752998678e-07
9	2.13606155969e+28	1.25769182472e-05	1.73727770711e-07	8.74694660676e+27	3.13190547285e-05	1.73727770711e-07	1.60917609027e+28	1.65032667231e-05	1.73727770711e-07
10	2.92131687246e+28	1.24507287137e-05	2.04268871606e-07	1.19489790811e+28	3.10762560794e-05	2.04268871606e-07	2.1917369472e+28	1.62992622509e-05	2.04268871606e-07
11	3.99433063392e+28	1.23237926141e-05	2.40179055636e-07	1.63100079667e+28	3.08213317908e-05	2.40179055636e-07	2.98234864987e+28	1.60858483822e-05	2.40179055636e-07
12	5.46056117535e+28	1.21970059373e-05	2.82402200163e-07	2.22435149874e+28	3.05539079684e-05	2.82402200163e-07	4.05403327367e+28	1.58628476559e-05	2.82402200163e-07
13	7.46437931081e+28	1.20714524451e-05	3.32048114876e-07	3.03077658527e+28	3.02736299992e-05	3.32048114876e-07	5.50487301711e+28	1.5630069035e-05	3.32048114876e-07
14	1.02037019464e+29	1.19484345557e-05	3.90421712469e-07	4.1255282963e+28	2.99801671065e-05	3.90421712469e-07	7.46635944083e+28	1.53873482448e-05	3.90421712469e-07
15	1.39503436508e+29	1.18295092724e-05	4.59057307476e-07	5.60986791818e+28	2.9673217326e-05	4.59057307476e-07	1.01144147142e+29	1.51345516873e-05	4.59057307476e-07
16	1.907846594e+29	1.17165300475e-05	5.39758944795e-07	7.62018511353e+28	2.93539876439e-05	5.39758944795e-07	1.36838924617e+29	1.48715805717e-05	5.39758944795e-07
17	2.61045827724e+29	1.16116956433e-05	6.34647817911e-07	1.03495817215e+29	2.90513486113e-05	6.34647817911e-07	1.84875894161e+29	1.45983752442e-05	6.34647817911e-07
18	3.57441962709e+29	1.15176072588e-05	7.46218023182e-07	1.40431349853e+29	2.87424295762e-05	7.46218023182e-07	2.49410757923e+29	1.43149196972e-05	7.46218023182e-07
19	4.89925787299e+29	1.14373354406e-05	8.77402115639e-07	1.90368507147e+29	2.84294327964e-05	8.77402115639e-07	3.35949908037e+29	1.40212462232e-05	8.77402115639e-07
20	6.72409410487e+29	1.13744986019e-05	1.03164818942e-06	2.57841736546e+29	2.81166575203e-05	1.03164818942e-06	4.5176858349e+29	1.37174401725e-05	1.03164818942e-06
21	9.24449532606e+29	1.13333553499e-05	1.21301050882e-06	3.48951047188e+29	2.78076496529e-05	1.21301050882e-06	6.06449632647e+29	1.34036447621e-05	1.21301050882e-06
22	1.273714504e+30	1.13189132844e-05	1.42625607218e-06	4.71913045366e+29	2.75063989332e-05	1.42625607218e-06	8.12573939096e+29	1.30800658681e-05	1.42625607218e-06
23	1.75962980677e+30	1.13370575004e-05	1.67698990952e-06	6.37808096117e+29	2.72176077528e-05	1.67698990952e-06	1.08659999337e+30	1.27469767251e-05	1.67698990952e-06
24	2.43881525331e+30	1.1394702739e-05	1.97180240735e-06	8.61603439637e+29	2.69468651922e-05	1.97180240735e-06	1.44997716182e+30	1.24047224385e-05	1.97180240735e-06
25	3.39326861892e+30	1.14999740171e-05	2.31844253299e-06	1.16356381602e+30	2.67008150527e-05	2.31844253299e-06	1.93054463904e+30	1.20537242038e-05	2.31844253299e-06
26	4.7427904878e+30	1.16624216798e-05	2.72602151146e-06	1.57121094372e+30	2.64873397793e-05	2.72602151146e-06	2.56427537687e+30	1.16944831113e-05	2.72602151146e-06
27	6.6640022229e+30	1.1893278227e-05	3.20525230849e-06	2.12206761992e+30	2.63157697154e-05	3.20525230849e-06	3.39743066407e+30	1.13275834006e-05	3.20525230849e-06
28	9.41967299398e+30	1.22057660514e-05	3.76873121428e-06	2.86753363759e+30	2.61971243294e-05	3.76873121428e-06	4.48919528228e+30	1.09536950165e-05	3.76873121428e-06
29	1.34042470845e+31	1.2615467513e-05	4.4312689294e-06	3.8784078629e+30	2.61443917423e-05	4.4312689294e-06	5.91486355639e+30	1.05735753056e-05	4.4312689294e-06
30	1.92149373221e+31	1.31407717238e-05	5.210279855e-06	5.25282157563e+30	2.61728534288e-05	5.210279855e-06	7.76964077067e+30	1.01880696834e-05	5.210279855e-06
31	2.77633069391e+31	1.38034162346e-05	6.12623981978e-06	7.12772363404e+30	2.63004619595e-05	6.12623981978e-06	1.01731091826e+31	9.79811109671e-06	6.12623981978e-06
32	4.04511543779e+31	1.46291468251e-05	7.20322427468e-06	9.69561797733e+30	2.6548280965e-05	7.20322427468e-06	1.32743792273e+31	9.40471810331e-06	7.20322427468e-06
33	5.94487513012e+31	1.56485251816e-05	8.46954110152e-06	1.32290841202e+31	2.69409981428e-05	8.46954110152e-06	1.72578995942e+31	9.00899139751e-06	8.46954110152e-06
34	8.81362746534e+31	1.68979230145e-05	9.95847466841e-06	1.81168322116e+31	2.75075241253e-05	9.95847466841e-06	2.23498290685e+31	8.61210862047e-06	9.95847466841e-06
35	1.31805747796e+32	1.84207528989e-05	1.17091606892e-05	2.49168218227e+31	2.82816924441e-05	1.17091606892e-05	2.88247723627e+31	8.2153173169e-06	1.17091606892e-05
36	1.98779138723e+32	2.02690019785e-05	1.37676148818e-05	3.44345297477e+31	2.93030787528e-05	1.37676148818e-05	3.70125459082e+31	7.81992593087e-06	1.37676148818e-05
37	3.0219145414e+32	2.25051562653e-05	1.61879424637e-05	4.78380726545e+31	3.06179609976e-05	1.61879424637e-05	4.73044634109e+31	7.42729277798e-06	1.61879424637e-05
38	4.62836319769e+32	2.52046329079e-05	1.90337602742e-05	6.68269256241e+31	3.22804464852e-05	1.90337602742e-05	6.01584136637e+31	7.03881298876e-06	1.90337602742e-05
39	7.13708170348e+32	2.84588788071e-05	2.23798689047e-05	9.38778249638e+31	3.43537969193e-05	2.23798689047e-05	7.61017488422e+31	6.6559034899e-06	2.23798689047e-05
40	1.10725084567e+33	3.23793510732e-05	2.63142187868e-05	1.32600498531e+32	3.69119886257e-05	2.63142187868e-05	9.57307229465e+31	6.27998617751e-06	2.63142187868e-05
41	1.72691670275e+33	3.71026749139e-05	3.0940221916e-05	1.88247417382e+32	4.00415525318e-05	3.0940221916e-05	1.19704941899e+32	5.912469537e-06	3.0940221916e-05
42	2.70557625496e+33	4.27973874273e-05	3.63794699728e-05	2.68435797211e+32	4.38460390429e-05	3.63794699728e-05	1.48735049598e+32	5.55472907874e-06	3.63794699728e-05
43	4.25478334159e+33	4.96728355776e-05	4.27749302862e-05	3.84155963261e+32	4.84398572259e-05	4.27749302862e-05	1.83561737488e+32	5.20808708181e-06	4.27749302862e-05
44	6.71117589526e+33	5.79910233275e-05	5.02947036436e-05	5.51156176868e+32	5.39638641839e-05	5.02947036436e-05	2.24924208763e+32	4.87379226678e-06	5.02947036436e-05
45	1.06097880835e+34	6.80825245024e-05	5.91364427171e-05	7.91806529128e+32	6.05809252587e-05	5.91364427171e-05	2.73516549958e+32	4.55300014481e-06	5.91364427171e-05
46	1.67993435578e+34	8.03680325688e-05	6.95325472443e-05	1.1375472188e+33	6.84821272413e-05	6.95325472443e-05	3.29931169391e+32	4.24675490607e-06	6.95325472443e-05
47	2.66224559894e+34	9.53877557885e-05	8.17562725137e-05	1.63200934009e+33	7.78918433522e-05	8.17562725137e-05	3.9458965251e+32	3.95597380241e-06	8.17562725137e-05
48	4.21949857119e+34	0.000113841745657	9.61289117147e-05	2.33484438105e+33	8.90737349059e-05	9.61289117147e-05	4.67663119749e+32	3.68143503449e-06	9.61289117147e-05
49	6.6834408579e+34	0.000136645427516	0.000113028240933	3.32619208531e+33	0.000102337857151	0.000113028240933	5.48986434371e+32	3.42377015209e-06	0.000113028240933
50	1.05707046332e+35	0.00016500611484	0.000132898448765	4.71153132171e+33	0.000118049061968	0.000132898448765	6.37973244275e+32	3.18346189775e-06	0.000132898448765
51	1.66786294305e+35	0.00020052806438	0.000156261811547	6.62637115645e+33	0.000136636917777	0.000156261811547	7.33541511218e+32	2.96084824058e-06	0.000156261811547
52	2.62231212471e+35	0.000245355354634	0.00018373242107	9.23983340481e+33	0.000158607397368	0.00018373242107	8.34061308816e+32	2.75613302743e-06	0.00018373242107
53	4.10288734039e+35	0.000302362709727	0.000216032325608	1.27556594181e+34	0.000184556618098	0.000216032325608	9.3733744871e+32	2.56940318447e-06	0.000216032325608
54	6.3775501102e+35	0.000375402530386	0.00025401050852	1.74085909583e+34	0.000215186956961	0.00025401050852	1.04063796834e+33	2.40065169306e-06	0.00025401050852
55	9.82832948853e+35	0.000469566142396	0.00029866520326	2.34535436158e+34	0.000251325907412	0.00029866520326	1.14077481876e+33	2.24980460855e-06	0.00029866520326
56	1.49779075103e+36	0.000591668065926	0.000351170131339	3.11447188864e+34	0.000293948098274	0.000351170131339	1.23423489221e+33	2.11674919932e-06	0.000351170131339
57	2.25005569244e+36	0.000750392684261	0.000412905352878	4.07020967778e+34	0.000344200961976	0.000412905352878	1.31734869066e+33	2.00135897434e-06	0.000412905352878
58	3.3192843114e+36	0.000956570077771	0.000485493540654	5.22640001353e+34	0.00040343462569	0.000485493540654	1.38647328815e+33	1.90351028172e-06	0.000485493540654
59	4.78693781705e+36	0.00122306550052	0.000570842631062	6.58270007844e+34	0.000473174008425	0.000570842631062	1.43816099671e+33	1.82308498364e-06	0.000570842631062
60	6.71508200965e+36	0.0015641745486	0.000671195973068	8.11785435334e+34	0.000555472891434	0.000671195973068	1.46929199068e+33	1.75995548559e-06	0.000671195973068
61	9.11428783527e+36	0.00199446084428	0.000789191293273	9.78330639813e+34	0.000652334204717	0.000789191293273	1.4771726293e+33	1.71395310883e-06	0.000789191293273
62	1.19076579458e+37	0.00252725683881	0.000927930026951	1.14988121365e+35	0.000766294222549	0.000927930026951	1.45963713443e+33	1.684828307e-06	0.000927930026951
63	1.49066476309e+37	0.0031734605974	0.00109105883739	1.31521303412e+35	0.000900555598417	0.00109105883739	1.41521962416e+33	1.67221889474e-06	0.00109105883739
64	1.78172216961e+37	0.00394145751855	0.00128286546622	1.46048734429e+35	0.0010586920328	0.00128286546622	1.3434561917e+33	1.67564505133e-06	0.00128286546622
65	2.02851170607e+37	0.00483864780991	0.00150839143411	1.57059118896e+35	0.00124462483856	0.00150839143411	1.24531251495e+33	1.69437485136e-06	0.00150839143411
66	2.19696011517e+37	0.00587424862961	0.00177356455404	1.63121677871e+35	0.00146333333596	0.00177356455404	1.12362851219e+33	1.72819587516e-06	0.00177356455404
67	2.26200450415e+37	0.00706236462638	0.00208535474029	1.63143170778e+35	0.00172052969669	0.00208535474029	9.83385770962e+32	1.77640801577e-06	0.00208535474029
68	2.21300640636e+37	0.008424329159	0.00245195720842	1.56623712818e+35	0.00202291458927	0.00245195720842	8.31597826097e+32	1.83864471059e-06	0.00245195720842
69	2.05566496748e+37	0.00998968306874	0.00288300788147	1.43842764025e+35	0.00237834839455	0.00288300788147	6.76716956108e+32	1.91467557007e-06	0.00288300788147
70	1.81048690554e+37	0.0117967244467	0.00338983666438	1.25906677297e+35	0.00279605163594	0.00338983666438	5.27608443197e+32	2.00451082418e-06	0.00338983666438
71	1.50856078182e+37	0.0138927897301	0.00398576524367	1.04615351224e+35	0.00328683936621	0.00398576524367	3.92300553444e+32	2.10837136301e-06	0.00398576524367
72	1.18562190394e+37	0.0163338047218	0.00468645723984	8.21560913638e+34	0.00386339503079	0.00468645723984	2.76816403054e+32	2.22658145605e-06	0.00468645723984
73	8.7557554066e+36	0.0191849612174	0.00551032991612	6.06928797038e+34	0.00454059024612	0.00551032991612	1.84394865668e+32	2.35954701767e-06	0.00551032991612
74	6.04837609355e+36	0.0225217293695	0.00647903826507	4.19639705431e+34	0.00533585801865	0.00647903826507	1.15304510242e+32	2.5076977306e-06	0.00647903826507
75	3.88803588612e+36	0.0264314111605	0.00761804419684	2.70060459163e+34	0.00626962820211	0.00761804419684	6.72762420514e+31	2.67142814552e-06	0.00761804419684
76	2.31234551009e+36	0.0310152084264	0.00895728579007	1.60804586776e+34	0.0073658354624	0.00895728579007	3.63895904803e+31	2.85103823628e-06	0.00895728579007
77	1.2642642067e+36	0.0363907730836	0.010531964196	8.80203143892e+33	0.00865251170843	0.010531964196	1.81201751808e+31	3.04667167812e-06	0.010531964196
78	6.3105170127e+35	0.0426952234392	0.0123834688796	4.39822930072e+33	0.0101624768909	0.0123834688796	8.24436059182e+30	3.25824885741e-06	0.0123834688796
79	2.853995021e+35	0.0500886396639	0.0145604655159	1.99111989064e+33	0.0119341443255	0.0145604655159	3.39977972856e+30	3.48539124969e-06	0.0145604655159
