0-group 1-eemit(erg/ccm/s) 2-eabs(1/cm) 3-escat(1/cm) 4-aemit(erg/ccm/s) 5-aabs(1/cm) 6-ascat(1/cm) 7-hemit(erg/ccm/s) 8-habs(1/cm) 9-hscat(1/cm)
0	8.55768125103e+18	1.04796143555e-12	9.4900986693e-16	9.97193522431e+17	7.65773045912e-13	9.4900986693e-16	8.57018447587e+16	9.64307629047e-14	9.4900986693e-16
1	5.18301621988e+18	1.74427083598e-12	4.1162068466e-15	1.15282823299e+18	1.37175441998e-12	4.1162068466e-15	1.42023649199e+17	1.77071664926e-13	4.1162068466e-15
2	7.09512250014e+18	1.89470385763e-12	4.83983029546e-15	1.64666884453e+18	1.49181706531e-12	4.83983029546e-15	2.09505041177e+17	1.93365626366e-13	4.83983029546e-15
3	9.67173509701e+18	2.05877544791e-12	5.69066574198e-15	2.33085449293e+18	1.62218118275e-12	5.69066574198e-15	3.0591993578e+17	2.11093962481e-13	5.69066574198e-15
4	1.31208603443e+19	2.23778172043e-12	6.69107687874e-15	3.26865703402e+18	1.76374723492e-12	6.69107687874e-15	4.42083740512e+17	2.30384533311e-13	6.69107687874e-15
5	1.77034372619e+19	2.43313925122e-12	7.86735890442e-15	4.5396485252e+18	1.91749242758e-12	7.86735890442e-15	6.3204844374e+17	2.51376415178e-13	7.86735890442e-15
6	2.3740315334e+19	2.64639299867e-12	9.2504296771e-15	6.24150001706e+18	2.08447607914e-12	9.2504296771e-15	8.93657056811e+17	2.74220661685e-13	9.2504296771e-15
7	3.16164247651e+19	2.87922377358e-12	1.08766423714e-14	8.49057899734e+18	2.26584525052e-12	1.08766423714e-14	1.24896339297e+18	2.99081039093e-13	1.08766423714e-14
8	4.1780053743e+19	3.13345537757e-12	1.27887409997e-14	1.14209084419e+19	2.46284099224e-12	1.27887409997e-14	1.72435074437e+18	3.26134717178e-13	1.27887409997e-14
9	5.47332892542e+19	3.41106028998e-12	1.5036983912e-14	1.51798239413e+19	2.67680424739e-12	1.5036983912e-14	2.35012120513e+18	3.55572903752e-13	1.5036983912e-14
10	7.10119729999e+19	3.71416531811e-12	1.76804648071e-14	1.9921555995e+19	2.90918295548e-12	1.76804648071e-14	3.15927029261e+18	3.87601416085e-13	1.76804648071e-14
11	9.11511384894e+19	4.04505580658e-12	2.07886659733e-14	2.57978204797e+19	3.16153873499e-12	2.07886659733e-14	4.18525793379e+18	4.22441228843e-13	2.07886659733e-14
12	1.15610682856e+20	4.40617458092e-12	2.44432845893e-14	3.29238566614e+19	3.43554877888e-12	2.44432845893e-14	5.45814818972e+18	4.60328886041e-13	2.44432845893e-14
13	1.44695599114e+20	4.80012997419e-12	2.87403800841e-14	4.13563227451e+19	3.73301717962e-12	2.87403800841e-14	6.99906332249e+18	5.01516973674e-13	2.87403800841e-14
14	1.78453153761e+20	5.22970163728e-12	3.3792899001e-14	5.10653395999e+19	4.05588303354e-12	3.3792899001e-14	8.8131775508e+18	5.46274713382e-13	3.3792899001e-14
15	2.16546132761e+20	5.69784682033e-12	3.97336437287e-14	6.18961977532e+19	4.40622747597e-12	3.97336437287e-14	1.08816137862e+19	5.94888704898e-13	3.97336437287e-14
16	2.58125158267e+20	6.20770926621e-12	4.67187631317e-14	7.3534781028e+19	4.78682303415e-12	4.67187631317e-14	1.31534390936e+19	6.47663924721e-13	4.67187631317e-14
17	3.01727461499e+20	6.76262703197e-12	5.49318568278e-14	8.54993650232e+19	5.21200325017e-12	5.49318568278e-14	1.55393678124e+19	7.04925030043e-13	5.49318568278e-14
18	3.45230264325e+20	7.36612991863e-12	6.45888009931e-14	9.71065812418e+19	5.67595895506e-12	6.45888009931e-14	1.79095860702e+19	7.67017995588e-13	6.45888009931e-14
19	3.85890493349e+20	8.02190783875e-12	7.59434225353e-14	1.07527565959e+20	6.18224626999e-12	7.59434225353e-14	2.00979639553e+19	8.34199448826e-13	7.59434225353e-14
20	4.20508179076e+20	8.73371557412e-12	8.92941707804e-14	1.15845527805e+20	6.73575966888e-12	8.92941707804e-14	2.19145434182e+19	9.07084918363e-13	8.92941707804e-14
21	4.45730112363e+20	9.5051588034e-12	1.04991962031e-13	1.21159222112e+20	7.34123689107e-12	1.04991962031e-13	2.31667500498e+19	9.85990874202e-13	1.04991962031e-13
22	4.58477782141e+20	1.03393017688e-11	1.2344940319e-13	1.22715984703e+20	8.00377581857e-12	1.2344940319e-13	2.36875848735e+19	1.07136922946e-12	1.2344940319e-13
23	4.5645238399e+20	1.1238117223e-11	1.45151636879e-13	1.20053793679e+20	8.72895999746e-12	1.45151636879e-13	2.33665076678e+19	1.16370193032e-12	1.45151636879e-13
24	4.38627987781e+20	1.22021031906e-11	1.7066909312e-13	1.13122767935e+20	9.5229419163e-12	1.7066909312e-13	2.21764469349e+19	1.26350084631e-12	1.7066909312e-13
25	4.05617047528e+20	1.32309346203e-11	2.0067248274e-13	1.02353202728e+20	1.03925162615e-11	2.0067248274e-13	2.01894575612e+19	1.37130627607e-12	2.0067248274e-13
26	3.59777070119e+20	1.43260200752e-11	2.35950426601e-13	8.86289555489e+19	1.13450448652e-11	2.35950426601e-13	1.75748145636e+19	1.48766627931e-12	2.35950426601e-13
27	3.05003761036e+20	1.54938144167e-11	2.77430184014e-13	7.31816182807e+19	1.23884370797e-11	2.77430184014e-13	1.45769336509e+19	1.61311574199e-12	2.77430184014e-13
28	2.46182226006e+20	1.67461964704e-11	3.26202025191e-13	5.73970382688e+19	1.353201184e-11	3.26202025191e-13	1.14759950491e+19	1.74828264164e-12	3.26202025191e-13
29	1.88391763619e+20	1.80978475099e-11	3.83547888334e-13	4.25775926538e+19	1.47856495591e-11	3.83547888334e-13	8.53990678671e+18	1.89375257993e-12	3.83547888334e-13
30	1.36062659348e+20	1.95599066132e-11	4.50975074601e-13	2.97353005314e+19	1.61601203903e-11	4.50975074601e-13	5.97973378882e+18	2.05009342313e-12	4.50975074601e-13
31	9.22858574448e+19	2.11292038215e-11	5.30255866601e-13	1.94530191689e+19	1.76671098497e-11	5.30255866601e-13	3.92036790773e+18	2.21783478776e-12	5.30255866601e-13
32	5.84672994892e+19	2.28214454223e-11	6.23474111765e-13	1.18565330758e+19	1.93192318038e-11	6.23474111765e-13	2.39357898004e+18	2.39744160351e-12	6.23474111765e-13
33	3.43984497429e+19	2.46338040183e-11	7.33079995008e-13	6.69300618253e+18	2.11300253517e-11	7.33079995008e-13	1.35300020212e+18	2.58928048372e-12	7.33079995008e-13
34	1.86752076771e+19	2.65667408917e-11	8.61954440353e-13	3.47688726771e+18	2.31139307562e-11	8.61954440353e-13	7.03571182074e+17	2.79357747834e-12	8.61954440353e-13
35	9.29218491155e+18	2.86193292735e-11	1.01348483427e-12	1.65061839265e+18	2.52862402823e-11	1.01348483427e-12	3.34247973712e+17	3.01036568602e-12	1.01348483427e-12
36	4.20605221452e+18	3.07886645337e-11	1.19165406105e-12	7.10741365602e+17	2.76630201193e-11	1.19165406105e-12	1.43983024704e+17	3.2394212397e-12	1.19165406105e-12
37	1.71810465084e+18	3.306902785e-11	1.40114519054e-12	2.75315822257e+17	3.02610032381e-11	1.40114519054e-12	5.57809775637e+16	3.48018640696e-12	1.40114519054e-12
38	6.27871880058e+17	3.5450902581e-11	1.64746456975e-12	9.50939656854e+16	3.30974581227e-11	1.64746456975e-12	1.92637400777e+16	3.7316790856e-12	1.64746456975e-12
39	2.03356702097e+17	3.79198904737e-11	1.93708655384e-12	2.90065166978e+16	3.61900473003e-11	1.93708655384e-12	5.87345494587e+15	3.99238893746e-12	1.93708655384e-12
40	5.77829259099e+16	4.04555549137e-11	2.27762368063e-12	7.73266278797e+15	3.95567034987e-11	2.27762368063e-12	1.56461893219e+15	4.26016196458e-12	2.27762368063e-12
41	1.42469625194e+16	4.30302236285e-11	2.67802676153e-12	1.78131467127e+15	4.32155697926e-11	2.67802676153e-12	3.60050752305e+14	4.53207764114e-12	2.67802676153e-12
42	3.01208191246e+15	4.56078094684e-11	3.14882014815e-12	3.50271947853e+14	4.7185076982e-11	3.14882014815e-12	7.07000960345e+13	4.80432592474e-12	3.14882014815e-12
43	5.39079992571e+14	4.81427489951e-11	3.7023783585e-12	5.80166169737e+13	5.14842645016e-11	3.7023783585e-12	1.16892374281e+13	5.07209563527e-12	3.7023783585e-12
44	8.0546562355e+13	5.05792095445e-11	4.3532513337e-12	7.97861558656e+12	5.61334913948e-11	4.3532513337e-12	1.6039133329e+12	5.32949068736e-12	4.3532513337e-12
45	9.89738932323e+12	5.28507696283e-11	5.11854687429e-12	896922839147.0	6.11557276102e-11	5.11854687429e-12	179800738829.0	5.56949608329e-12	5.11854687429e-12
46	984037080193.0	5.48808264057e-11	6.01838030842e-12	81039371937.1	6.65786567115e-11	6.01838030842e-12	16189345250.2	5.78402057023e-12	6.01838030842e-12
47	77781253611.2	5.65840149248e-11	7.07640321097e-12	5778351328.47	7.24378494035e-11	7.07640321097e-12	1149426863.63	5.96404606337e-12	7.07640321097e-12
48	4795491791.39	5.78689192783e-11	8.32042507088e-12	318770042.336	7.87812686743e-11	8.32042507088e-12	63075062.3748	6.09991343974e-12	8.32042507088e-12
49	225900812.409	5.86422951284e-11	9.78314424661e-12	13317198.2845	8.56753257514e-11	9.78314424661e-12	2617787.7175	6.18176790231e-12	9.78314424661e-12
50	7950734.1913	5.88148871577e-11	1.15030074227e-11	411673.637371	9.32126062938e-11	1.15030074227e-11	80258.6600582	6.20017277769e-12	1.15030074227e-11
51	204059.779895	5.830870445e-11	1.35252201573e-11	9184.12210097	1.01521221184e-10	1.35252201573e-11	1771.93459848	6.1468773286e-12	1.35252201573e-11
52	3719.85717521	5.70653208273e-11	1.59029350831e-11	143.930831002	1.10775512832e-10	1.59029350831e-11	27.4020989358	6.01569291551e-12	1.59029350831e-11
53	46.8049350071	5.50544320369e-11	1.86986489917e-11	1.53918802823	1.21207594454e-10	1.86986489917e-11	0.288050111079	5.80339644912e-12	1.86986489917e-11
54	0.39406038055	5.22815922415e-11	2.1985845524e-11	0.0108869568479	1.33118966542e-10	2.1985845524e-11	0.00199236187409	5.51054738487e-12	2.1985845524e-11
55	0.00214627448569	4.879385369e-11	2.58509266429e-11	4.92598407189e-05	1.46891307728e-10	2.58509266429e-11	8.75305574186e-06	5.14208351276e-12	2.58509266429e-11
56	7.29020623712e-06	4.46820313882e-11	3.03954836564e-11	1.37586166495e-07	1.62995542135e-10	3.03954836564e-11	2.35084907969e-08	4.70756054211e-12	3.03954836564e-11
57	1.48400173157e-08	4.00785686257e-11	3.57389674834e-11	2.28409595172e-10	1.81998487238e-10	3.57389674834e-11	3.70313914411e-11	4.22092726458e-12	3.57389674834e-11
58	1.73407393511e-11	3.51504979258e-11	4.20218283485e-11	2.19656733393e-13	2.04566789925e-10	4.20218283485e-11	3.58356996849e-14	3.69978281873e-12	4.20218283485e-11
59	1.54243112477e-14	3.00877199065e-11	4.94092074308e-11	4.44455830348e-15	2.31468418687e-10	4.94092074308e-11	4.34762325735e-15	3.16413942252e-12	4.94092074308e-11
60	5.99297189881e-15	2.50876436893e-11	5.80952774995e-11	5.9893094328e-15	2.63572604683e-10	5.80952774995e-11	5.989282597e-15	2.63480064994e-12	5.80952774995e-11
61	8.28019292897e-15	2.03379895989e-11	6.83083466269e-11	8.28019232768e-15	3.01849690452e-10	6.83083466269e-11	8.28019232396e-15	2.13154529613e-12	6.83083466269e-11
62	1.1447385554e-14	1.60000782498e-11	8.03168591275e-11	1.14473855539e-14	3.47372720408e-10	8.03168591275e-11	1.14473855539e-14	1.67136218007e-12	8.03168591275e-11
63	1.58260377174e-14	1.21950714905e-11	9.44364514535e-11	1.58260377174e-14	4.01322677338e-10	9.44364514535e-11	1.58260377174e-14	1.26699621667e-12	9.44364514535e-11
64	2.18795347334e-14	8.99529994954e-12	1.11038248507e-10	2.18795347334e-14	4.649989642e-10	1.11038248507e-10	2.18795347334e-14	9.26031224644e-13	1.11038248507e-10
65	3.02485087358e-14	6.42201329423e-12	1.30558618434e-10	3.02485087358e-14	5.39836052291e-10	1.30558618434e-10	3.02485087358e-14	6.50650657022e-13	1.30558618434e-10
66	4.18186351717e-14	4.44974671181e-12	1.53510642293e-10	4.18186351717e-14	6.27426257087e-10	1.53510642293e-10	4.18186351717e-14	4.38096823412e-13	1.53510642293e-10
67	5.781436245e-14	3.01625097006e-12	1.8049760008e-10	5.781436245e-14	7.29547540614e-10	1.8049760008e-10	5.781436245e-14	2.81717599536e-13	1.8049760008e-10
68	7.99284934042e-14	2.03589283345e-12	2.12228827579e-10	7.99284934042e-14	8.48194303564e-10	2.12228827579e-10	7.99284934042e-14	1.72379728267e-13	2.12228827579e-10
69	1.10501331973e-13	1.41388445274e-12	2.49538360818e-10	1.10501331973e-13	3.99431798365e-11	2.49538360818e-10	1.10501331973e-13	1.05650896976e-13	2.49538360818e-10
70	1.52768353908e-13	1.44101024139e-16	2.93406858201e-10	1.52768353908e-13	2.67751460554e-19	2.93406858201e-10	1.52768353908e-13	9.76409018654e-21	2.93406858201e-10
71	2.11202612124e-13	1.42132344105e-25	3.44987376519e-10	2.11202612124e-13	3.63730862339e-28	3.44987376519e-10	2.11202612124e-13	5.88256022747e-30	3.44987376519e-10
72	2.91988112897e-13	2.8144321764e-35	4.05635678345e-10	2.91988112897e-13	8.74869969894e-38	4.05635678345e-10	2.91988112897e-13	2.15302787111e-33	4.05635678345e-10
73	4.03674259593e-13	3.85420994105e-42	4.76945867431e-10	4.03674259593e-13	7.01866582424e-47	4.76945867431e-10	4.03674259593e-13	2.33462356734e-33	4.76945867431e-10
74	5.5808062267e-13	4.1782688002e-42	5.60792288753e-10	5.5808062267e-13	7.26165371288e-47	5.60792288753e-10	5.5808062267e-13	2.53153613088e-33	5.60792288753e-10
75	7.71547786361e-13	4.53067608694e-42	6.59378794536e-10	7.71547786361e-13	7.87412237079e-47	6.59378794536e-10	7.71547786361e-13	2.74505678788e-33	6.59378794536e-10
76	1.06666664718e-12	4.91280627718e-42	7.75296671161e-10	1.06666664718e-12	8.53824815338e-47	7.75296671161e-10	1.06666664718e-12	2.97658630617e-33	7.75296671161e-10
77	1.4746691732e-12	5.32716627436e-42	9.11592749562e-10	1.4746691732e-12	9.25838795063e-47	9.11592749562e-10	1.4746691732e-12	3.22764359778e-33	9.11592749562e-10
78	2.0387336345e-12	5.77647442039e-42	1.07184948932e-09	2.0387336345e-12	1.00392661234e-46	1.07184948932e-09	2.0387336345e-12	3.49987568356e-33	1.07184948932e-09
79	2.81855409197e-12	6.26367832886e-42	1.26027914143e-09	2.81855409197e-12	1.08860054969e-46	1.26027914143e-09	2.81855409197e-12	3.79506849816e-33	1.26027914143e-09
