0-group 1-eemit(erg/ccm/s) 2-eabs(1/cm) 3-escat(1/cm) 4-aemit(erg/ccm/s) 5-aabs(1/cm) 6-ascat(1/cm) 7-hemit(erg/ccm/s) 8-habs(1/cm) 9-hscat(1/cm)
0	7.3365768537e+24	3.99043696279e-08	9.73635401479e-10	3.02477544612e+24	2.71997110556e-08	9.73635401479e-10	3.70048908533e+24	1.8023743947e-08	9.73635401479e-10
1	4.30516084649e+24	4.20505797159e-08	4.22301689931e-09	1.49835570981e+24	2.4603931255e-08	4.22301689931e-09	1.82004680868e+24	1.56909484931e-08	4.22301689931e-09
2	6.07052740681e+24	4.31470216872e-08	4.96541740715e-09	2.0293619673e+24	2.43002946973e-08	4.96541740715e-09	2.46127386069e+24	1.53913945716e-08	4.96541740715e-09
3	8.58057456689e+24	4.43940989592e-08	5.83833089355e-09	2.74558264759e+24	2.39863659309e-08	5.83833089355e-09	3.32409976989e+24	1.50814036596e-08	5.83833089355e-09
4	1.21605397544e+25	4.58134471104e-08	6.86470135894e-09	3.71035994973e+24	2.36622344174e-08	6.86470135894e-09	4.48322347934e+24	1.47609861304e-08	6.86470135894e-09
5	1.72835163353e+25	4.74301152945e-08	8.07150632718e-09	5.00817343517e+24	2.33280607954e-08	8.07150632718e-09	6.03771233095e+24	1.44302084352e-08	8.07150632718e-09
6	2.46406256811e+25	4.92731610511e-08	9.49046593335e-09	6.75147992823e+24	2.29840856799e-08	9.49046593335e-09	8.11860618999e+24	1.4089199717e-08	9.49046593335e-09
7	3.52459497079e+25	5.13763590645e-08	1.11588766683e-08	9.0896825074e+24	2.26306386348e-08	1.11588766683e-08	1.08987496256e+25	1.37381583438e-08	1.11588766683e-08
8	5.05941377369e+25	5.37790481377e-08	1.3120591694e-08	1.22208593966e+25	2.22681472566e-08	1.3120591694e-08	1.46054450364e+25	1.33773582691e-08	1.3120591694e-08
9	7.28981544708e+25	5.65271464126e-08	1.54271734978e-08	1.64070590082e+25	2.18971463028e-08	1.54271734978e-08	1.95366527165e+25	1.30071551307e-08	1.54271734978e-08
10	1.05449427277e+26	5.96743721549e-08	1.81392491802e-08	2.19941878403e+25	2.15182867979e-08	1.81392491802e-08	2.60816165648e+25	1.26279919843e-08	1.81392491802e-08
11	1.53165616369e+26	6.32837166779e-08	2.13281040024e-08	2.94377938545e+25	2.11323450436e-08	2.13281040024e-08	3.47469647158e+25	1.22404045666e-08	2.13281040024e-08
12	2.23426978119e+26	6.74292278021e-08	2.50775550749e-08	3.93363920023e+25	2.07402314489e-08	2.50775550749e-08	4.61895182846e+25	1.18450259665e-08	2.50775550749e-08
13	3.27358061281e+26	7.21981774576e-08	2.94861544405e-08	5.24744061567e+25	2.03429991133e-08	2.94861544405e-08	6.12572301202e+25	1.14425905735e-08	2.94861544405e-08
14	4.8179866447e+26	7.76937066365e-08	3.46697794538e-08	6.98773312703e+25	1.9941852062e-08	3.46697794538e-08	8.10398548347e+25	1.10339371579e-08	3.46697794538e-08
15	7.12344544072e+26	8.40380664123e-08	4.07646785477e-08	9.28823738059e+25	1.95381530523e-08	4.07646785477e-08	1.0693109988e+26	1.06200109261e-08	4.07646785477e-08
16	1.0580525992e+27	9.13766070679e-08	4.79310524404e-08	1.23612484875e+26	1.92028837975e-08	4.79310524404e-08	1.40704094156e+26	1.02018643819e-08	4.79310524404e-08
17	1.57874182193e+27	9.98827111757e-08	5.6357264914e-08	1.75021159246e+26	2.03072927322e-08	5.6357264914e-08	1.84601993165e+26	9.78065681745e-09	5.6357264914e-08
18	2.36635063085e+27	1.09763924421e-07	6.62647938418e-08	2.50682496662e+26	2.176869595e-08	6.62647938418e-08	2.41445362578e+26	9.35765225593e-09	6.62647938418e-08
19	3.56264444063e+27	1.21269615058e-07	7.79140525999e-08	3.63792855098e+26	2.36882298456e-08	7.79140525999e-08	3.14757575832e+26	8.93421567035e-09	7.79140525999e-08
20	5.38687971473e+27	1.34700596103e-07	9.16112348744e-08	5.36808792987e+26	2.62600932143e-08	9.16112348744e-08	4.0890874368e+26	8.5118073169e-09	9.16112348744e-08
21	8.17909842425e+27	1.50421283344e-07	1.07716362776e-07	8.05149162883e+26	2.96345680351e-08	1.07716362776e-07	5.29277572865e+26	8.09197504534e-09	1.07716362776e-07
22	1.24679842187e+28	1.68875150524e-07	1.26652749803e-07	1.22537567924e+27	3.397323178e-08	1.26652749803e-07	6.82428934633e+26	7.67634448625e-09	1.26652749803e-07
23	1.90773407866e+28	1.90604499485e-07	1.48918127379e-07	1.88755950335e+27	3.94597771807e-08	1.48918127379e-07	8.76302731981e+26	7.26660706786e-09	1.48918127379e-07
24	2.92933217108e+28	2.16275914217e-07	1.75097727421e-07	2.93436708694e+27	4.63060181414e-08	1.75097727421e-07	1.12040684247e+27	6.86450588609e-09	1.75097727421e-07
25	4.51272149536e+28	2.46713251074e-07	2.05879664803e-07	4.59026986651e+27	5.47572728844e-08	2.05879664803e-07	1.42600350206e+27	6.47181954068e-09	2.05879664803e-07
26	6.97284475415e+28	2.82940685361e-07	2.42073024041e-07	7.20575630029e+27	6.50981418542e-08	2.42073024041e-07	1.80627461084e+27	6.09034416055e-09	2.42073024041e-07
27	1.08033507178e+29	3.26239261154e-07	2.84629125583e-07	1.13234349432e+28	7.76591140587e-08	2.84629125583e-07	2.27644736341e+27	5.72187397141e-09	2.84629125583e-07
28	1.67784751234e+29	3.78221679909e-07	3.34666530694e-07	1.77755450459e+28	9.28243145191e-08	3.34666530694e-07	2.85385781204e+27	5.36818090726e-09	3.34666530694e-07
29	2.61127739985e+29	4.40931857811e-07	3.93500442153e-07	2.78256750996e+28	1.1104070639e-07	3.93500442153e-07	3.55792717446e+27	5.03099393229e-09	3.93500442153e-07
30	4.07110329665e+29	5.16978278552e-07	4.62677273564e-07	4.33713493359e+28	1.32829107403e-07	4.62677273564e-07	4.41002484626e+27	4.71197891336e-09	4.62677273564e-07
31	6.35580818463e+29	6.09713630472e-07	5.44015295895e-07	6.7228268594e+28	1.58797450398e-07	5.44015295895e-07	5.43319429085e+27	4.41272005932e-09	5.44015295895e-07
32	9.93243053149e+29	7.23477984049e-07	6.39652429625e-07	1.03520688952e+29	1.8965680472e-07	6.39652429625e-07	6.65172436844e+27	4.13470410658e-09	6.39652429625e-07
33	1.55300892462e+30	8.63929247017e-07	7.52102438687e-07	1.58204392224e+29	2.2624077557e-07	7.52102438687e-07	8.09055999848e+27	3.8793085656e-09	7.52102438687e-07
34	2.42833431148e+30	1.0384932626e-06	8.8432100322e-07	2.3974679482e+29	2.69529008912e-07	8.8432100322e-07	9.77456219362e+27	3.64779542441e-09	8.8432100322e-07
35	3.79497013171e+30	1.25697700949e-06	1.03978340783e-06	3.59979698791e+29	3.20675646037e-07	1.03978340783e-06	1.17276466218e+28	3.44131170286e-09	1.03978340783e-06
36	5.92351078962e+30	1.53240179645e-06	1.22257588734e-06	5.35119507512e+29	3.81043689326e-07	1.22257588734e-06	1.39718473815e+28	3.26089812355e-09	1.22257588734e-06
37	9.22718913096e+30	1.8821278716e-06	1.43750303096e-06	7.86911805636e+29	4.5224635298e-07	1.43750303096e-06	1.65263602329e+28	3.10750685788e-09	1.43750303096e-06
38	1.43302423039e+31	2.32935381166e-06	1.69021406803e-06	1.14379605828e+30	5.36196573334e-07	1.69021406803e-06	1.94066041323e+28	2.98202875099e-09	1.69021406803e-06
39	2.21621044701e+31	2.90507508423e-06	1.98735135457e-06	1.64189712641e+30	6.35165938551e-07	1.98735135457e-06	2.26232843042e+28	2.88532954168e-09	1.98735135457e-06
40	3.40801215257e+31	3.65055998292e-06	2.33672496355e-06	2.3255329268e+30	7.5185436625e-07	2.33672496355e-06	2.61813254171e+28	2.81829327974e-09	2.33672496355e-06
41	5.20156650832e+31	4.62031984221e-06	2.74751796793e-06	3.2467903599e+30	8.89471916624e-07	2.74751796793e-06	3.00783566159e+28	2.78186931972e-09	2.74751796793e-06
42	7.86213022097e+31	5.88537406493e-06	3.23052781215e-06	4.46358783083e+30	1.05183419455e-06	3.23052781215e-06	3.43021785208e+28	2.77711692721e-09	3.23052781215e-06
43	1.17365524988e+32	7.5362983218e-06	3.7984501164e-06	6.03555631346e+30	1.24347289736e-06	3.7984501164e-06	3.88263782611e+28	2.80523884911e-09	3.7984501164e-06
44	1.72475473989e+32	9.6850941414e-06	4.46621237326e-06	8.01710011517e+30	1.46976325029e-06	4.46621237326e-06	4.36031132093e+28	2.86759274768e-09	4.46621237326e-06
45	2.48578476646e+32	1.24627820987e-05	5.25136630777e-06	1.0447231765e+31	1.73707039896e-06	5.25136630777e-06	4.8552296664e+28	2.96566841173e-09	5.25136630777e-06
46	3.49876124981e+32	1.60206182804e-05	6.1745492139e-06	1.33363044869e+31	2.05291736439e-06	6.1745492139e-06	5.35473246408e+28	3.10102116037e-09	6.1745492139e-06
47	4.78764360454e+32	2.05116710886e-05	7.26002639322e-06	1.66506495569e+31	2.42617797768e-06	7.26002639322e-06	5.83993875832e+28	3.27516023689e-09	7.26002639322e-06
48	6.34050066144e+32	2.60826465238e-05	8.53632895363e-06	2.02973347959e+31	2.86729934119e-06	8.53632895363e-06	6.28452743443e+28	3.48940640829e-09	8.53632895363e-06
49	8.09280020922e+32	3.28601496999e-05	1.00370037322e-05	2.4112609427e+31	3.3885598116e-06	1.00370037322e-05	6.65465528214e+28	3.74475254472e-09	1.00370037322e-05
50	9.91990235236e+32	4.0946075958e-05	1.18014950534e-05	2.78586977768e+31	4.00437020426e-06	1.18014950534e-05	6.91092028776e+28	4.04177558691e-09	1.18014950534e-05
51	1.16459760422e+33	5.04265273104e-05	1.38761814991e-05	3.12338607601e+31	4.73162775473e-06	1.38761814991e-05	7.01298420249e+28	4.3806454186e-09	1.38761814991e-05
52	1.30706925159e+33	6.13944121987e-05	1.63155949415e-05	3.38993962618e+31	5.59013419559e-06	1.63155949415e-05	6.92665893643e+28	4.76076971204e-09	1.63155949415e-05
53	1.40071561219e+33	7.39793259367e-05	1.91838538803e-05	3.55240287986e+31	6.6030910019e-06	1.91838538803e-05	6.63214438231e+28	5.18298667832e-09	1.91838538803e-05
54	1.43198324093e+33	8.83754725026e-05	2.25563487584e-05	3.58410538375e+31	7.79768638805e-06	2.25563487584e-05	6.13118390544e+28	5.64681028797e-09	2.25563487584e-05
55	1.39522139371e+33	0.000104861053382	2.65217235538e-05	3.47076933916e+31	9.20560109798e-06	2.65217235538e-05	5.45069661851e+28	6.15266071528e-09	2.65217235538e-05
56	1.29384759358e+33	0.000123805350946	3.1184205733e-05	3.2151437141e+31	1.08647731062e-05	3.1184205733e-05	4.64116483259e+28	6.70134655136e-09	3.1184205733e-05
57	1.13978209386e+33	0.000145674264078	3.6666345806e-05	2.83872785373e+31	1.2818472298e-05	3.6666345806e-05	3.76950273292e+28	7.29428527882e-09	3.6666345806e-05
58	9.51316319988e+32	0.000171036088038	4.31122384927e-05	2.37947321434e+31	1.51183199552e-05	4.31122384927e-05	2.90782612438e+28	7.93361095294e-09	4.31122384927e-05
59	7.49809038763e+32	0.000200558383058	5.06913101645e-05	1.88543566522e+31	1.78246642233e-05	5.06913101645e-05	2.12090724983e+28	8.62171109101e-09	5.06913101645e-05
60	5.55854579493e+32	0.000235018169244	5.96027721137e-05	1.40572459257e+31	2.10083086187e-05	5.96027721137e-05	1.45563043643e+28	9.36118488555e-09	5.96027721137e-05
61	3.8578213969e+32	0.000275315308098	7.00808567013e-05	9.81208673172e+30	2.47523055758e-05	7.00808567013e-05	9.35198174718e+27	1.0154644014e-08	7.00808567013e-05
62	2.4935662471e+32	0.000322491664841	8.24009740121e-05	6.37716779834e+30	2.91540455414e-05	8.24009740121e-05	5.59297804649e+27	1.10044953191e-08	8.24009740121e-05
63	1.49237902917e+32	0.000377755953543	9.68869508413e-05	3.83650300579e+30	3.43276910314e-05	9.68869508413e-05	3.09478404235e+27	1.19127069624e-08	9.68869508413e-05
64	8.21782262771e+31	0.000442514089697	0.000113919542285	2.12279383868e+30	4.04070137537e-05	0.000113919542285	1.5739981227e+27	1.28805530169e-08	0.000113919542285
65	4.1347433749e+31	0.000518405013321	0.000133946439658	1.07284859149e+30	4.75487024581e-05	0.000133946439658	7.30571300439e+26	1.39083270628e-08	0.000133946439658
66	1.88666094267e+31	0.000607342232963	0.000157494037784	4.91556179839e+29	5.59362198745e-05	0.000157494037784	3.07073687089e+26	1.49950135202e-08	0.000157494037784
67	7.74392442375e+30	0.000711561703845	0.000185181270969	2.02530219492e+29	6.57842994327e-05	0.000185181270969	1.15904151598e+26	1.61379062913e-08	0.000185181270969
68	2.83418692684e+30	0.000833677020528	0.000217735881307	7.43835296972e+28	7.73441870431e-05	0.000217735881307	3.89296920335e+25	1.73321677618e-08	0.000217735881307
69	9.1613928291e+29	0.000976743230395	0.000256013546946	2.41217840315e+28	9.09097506851e-05	0.000256013546946	1.15214366911e+25	1.85703273891e-08	0.000256013546946
70	2.58873673869e+29	0.00114433085341	0.00030102037306	6.83635882651e+27	0.00010682460149	0.00030102037306	2.97259124133e+24	1.98417282537e-08	0.00030102037306
71	6.32368249131e+28	0.00134061195232	0.00035393933672	1.67453480412e+27	0.000125490394969	0.00035393933672	6.60901278338e+23	2.1131942605e-08	0.00035393933672
72	1.31939539772e+28	0.0015704603728	0.000416161380721	3.50261512045e+26	0.000147376510504	0.000416161380721	1.25042765221e+23	2.24221941374e-08	0.000416161380721
73	2.32081815942e+27	0.00183956859463	0.000489321973671	6.17540609396e+25	0.000173031341581	0.000489321973671	1.98605293715e+22	2.36888457105e-08	0.000489321973671
74	3.39345752457e+26	0.00215458401603	0.000575344097288	9.04886902549e+24	0.000203095468574	0.000575344097288	2.60931266257e+21	2.49030357782e-08	0.000575344097288
75	4.0620806084e+25	0.00252326793135	0.000676488790808	1.08531251309e+24	0.000238317029864	0.000676488790808	2.79073226063e+20	2.60305726798e-08	0.000676488790808
76	3.91544624744e+24	0.00295468094442	0.000795414581024	1.04803252891e+23	0.000279569654529	0.000795414581024	2.38800858995e+19	2.70322187236e-08	0.000795414581024
77	2.9851524678e+23	0.00345939906218	0.000935247360047	8.00360353944e+21	0.000327873368919	0.000935247360047	1.60440436278e+18	2.78645086408e-08	0.000935247360047
78	1.76555592099e+22	0.0040497652061	0.00109966254749	4.74099512996e+20	0.000384418937271	0.00109966254749	8.2927497344e+16	2.84812400437e-08	0.00109966254749
79	7.93225186489e+20	0.00479510399072	0.00129298169661	2.13305309034e+19	0.000450596140034	0.00129298169661	3.22545024242e+15	2.88357364144e-08	0.00129298169661
