0-group 1-eemit(erg/ccm/s) 2-eabs(1/cm) 3-escat(1/cm) 4-aemit(erg/ccm/s) 5-aabs(1/cm) 6-ascat(1/cm) 7-hemit(erg/ccm/s) 8-habs(1/cm) 9-hscat(1/cm)
0	1.51269240871e+25	7.89098288503e-08	1.4330070746e-09	7.48885311342e+24	7.61362142797e-08	1.4330070746e-09	9.60907933369e+24	4.96383244977e-08	1.4330070746e-09
1	8.53050131219e+24	7.94067322451e-08	6.21548177448e-09	3.74500917901e+24	6.93350543508e-08	6.21548177448e-09	4.78715858112e+24	4.37927925165e-08	6.21548177448e-09
2	1.1916365935e+25	8.06093311177e-08	7.30815484113e-09	5.07838529415e+24	6.85276451091e-08	7.30815484113e-09	6.48543123313e+24	4.30386181245e-08	7.30815484113e-09
3	1.66772421089e+25	8.20075574949e-08	8.59291831586e-09	6.87925432922e+24	6.76888003906e-08	8.59291831586e-09	8.77560738975e+24	4.22560956956e-08	8.59291831586e-09
4	2.33891062778e+25	8.36309357239e-08	1.01035414257e-08	9.30839579777e+24	6.68182418247e-08	1.01035414257e-08	1.18593401328e+25	4.14450107352e-08	1.01035414257e-08
5	3.28788808375e+25	8.55136653117e-08	1.18797299811e-08	1.25805515928e+25	6.59158355197e-08	1.18797299811e-08	1.60049632195e+25	4.06052729688e-08	1.18797299811e-08
6	4.63389269455e+25	8.76954198585e-08	1.39681700184e-08	1.69819791228e+25	6.49816132202e-08	1.39681700184e-08	2.15686731227e+25	3.97369328877e-08	1.39681700184e-08
7	6.54964200599e+25	9.02222940132e-08	1.64237549148e-08	2.28934851065e+25	6.40157941617e-08	1.64237549148e-08	2.90220721674e+25	3.88401983615e-08	1.64237549148e-08
8	9.28652152779e+25	9.31479288868e-08	1.93110282268e-08	3.08205594429e+25	6.30188075044e-08	1.93110282268e-08	3.89878288738e+25	3.7915451139e-08	1.93110282268e-08
9	1.32122305438e+26	9.65348533285e-08	2.27058801784e-08	4.14326713045e+25	6.19913152207e-08	2.27058801784e-08	5.22856321215e+25	3.69632630485e-08	2.27058801784e-08
10	1.88673355925e+26	1.00456087208e-07	2.66975423899e-08	5.56143399183e+25	6.09342352988e-08	2.66975423899e-08	6.99911098358e+25	3.59844116911e-08	2.66975423899e-08
11	2.70506473711e+26	1.0499706386e-07	3.13909332763e-08	7.4531271708e+25	5.98487651051e-08	3.13909332763e-08	9.35109513301e+25	3.49798953989e-08	3.13909332763e-08
12	3.8948725509e+26	1.10257942771e-07	3.69094157645e-08	9.97156874546e+25	5.87364047214e-08	3.69094157645e-08	1.24678109094e+26	3.39509471999e-08	3.69094157645e-08
13	5.63332144128e+26	1.16356401382e-07	4.33980398124e-08	1.33175974217e+26	5.759898006e-08	4.33980398124e-08	1.65871643998e+26	3.28990474945e-08	4.33980398124e-08
14	8.18628375673e+26	1.23431017574e-07	5.10273549594e-08	1.77537015039e+26	5.643866551e-08	5.10273549594e-08	2.20166485234e+26	3.1825935114e-08	5.10273549594e-08
15	1.19547433836e+27	1.31645383717e-07	5.9997893117e-08	2.36219004667e+26	5.52580058501e-08	5.9997893117e-08	2.91519048686e+26	3.07336163865e-08	5.9997893117e-08
16	1.75463682602e+27	1.41193131107e-07	7.05454394284e-08	3.14181767477e+26	5.41615028428e-08	7.05454394284e-08	3.84995210963e+26	2.96243717968e-08	7.05454394284e-08
17	2.58862894152e+27	1.52304093099e-07	8.29472297376e-08	4.31625204784e+26	5.51559793644e-08	8.29472297376e-08	5.0704744894e+26	2.8500759792e-08	8.29472297376e-08
18	3.83891130927e+27	1.65251900117e-07	9.7529237565e-08	5.96971935274e+26	5.6663648569e-08	9.7529237565e-08	6.6584785616e+26	2.73656172509e-08	9.7529237565e-08
19	5.7226789871e+27	1.80363385432e-07	1.14674742123e-07	8.32714465973e+26	5.88365935815e-08	1.14674742123e-07	8.7168301097e+26	2.62220561205e-08	1.14674742123e-07
20	8.5746849427e+27	1.98030294357e-07	1.34834402579e-07	1.17534794055e+27	6.19641264735e-08	1.34834402579e-07	1.13741500645e+27	2.50734557184e-08	1.34834402579e-07
21	1.291269215e+28	2.18723941703e-07	1.58538103354e-07	1.68095386347e+27	6.6272953928e-08	1.58538103354e-07	1.47901000407e+27	2.39234502138e-08	1.58538103354e-07
22	1.95401108685e+28	2.4301366707e-07	1.86408881816e-07	2.43714306714e+27	7.20081080948e-08	1.86408881816e-07	1.91613103086e+27	2.2775910849e-08	1.86408881816e-07
23	2.97072251403e+28	2.71590214781e-07	2.19179304437e-07	3.58118118914e+27	7.94490954564e-08	2.19179304437e-07	2.47278496106e+27	2.16349225288e-08	2.19179304437e-07
24	4.53648148352e+28	3.05295543076e-07	2.57710721858e-07	5.32808281543e+27	8.89190596853e-08	2.57710721858e-07	3.17800428129e+27	2.05047545234e-08	2.57710721858e-07
25	6.9563568808e+28	3.45161085084e-07	3.03015908966e-07	8.01389235851e+27	1.00793074896e-07	3.03015908966e-07	4.0665320007e+27	1.93898251746e-08	3.03015908966e-07
26	1.07083592566e+29	3.92457198198e-07	3.56285685067e-07	1.21617790512e+28	1.15507047995e-07	3.56285685067e-07	5.17946281696e+27	1.82946607022e-08	3.56285685067e-07
27	1.65426999902e+29	4.48757528479e-07	4.1892021385e-07	1.85819656925e+28	1.33567851711e-07	4.1892021385e-07	6.56477564444e+27	1.72238484496e-08	4.1892021385e-07
28	2.56383087558e+29	5.16023395748e-07	4.92565805834e-07	2.85211349874e+28	1.55565127822e-07	4.92565805834e-07	8.27767270434e+27	1.61819852138e-08	4.92565805834e-07
29	3.984954345e+29	5.96715234011e-07	5.79158190642e-07	4.3883063615e+28	1.82185195602e-07	5.79158190642e-07	1.03806202516e+28	1.51736216548e-08	5.79158190642e-07
30	6.20947156877e+29	6.93940828395e-07	6.80973396478e-07	6.75499829412e+28	2.14227562308e-07	6.80973396478e-07	1.29429684357e+28	1.42032041779e-08	6.80973396478e-07
31	9.69670265599e+29	8.11653893934e-07	8.00687574144e-07	1.03843482823e+29	2.52624630812e-07	8.00687574144e-07	1.6040016793e+28	1.32750161163e-08	8.00687574144e-07
32	1.516930603e+30	9.54921887799e-07	9.41447338037e-07	1.59174119047e+29	2.98465325406e-07	9.41447338037e-07	1.97513927684e+28	1.23931204956e-08	9.41447338037e-07
33	2.37631756499e+30	1.1302894394e-06	1.106952473e-06	2.42938891692e+29	3.53023507479e-07	1.106952473e-06	2.41586297657e+28	1.15613071072e-08	1.106952473e-06
34	3.72608346153e+30	1.34627421659e-06	1.30155318091e-06	3.68732754882e+29	4.17792225983e-07	1.30155318091e-06	2.93418750388e+28	1.07830470302e-08	1.30155318091e-06
35	5.8452677783e+30	1.61404640354e-06	1.53036442309e-06	5.55939694979e+29	4.94525040672e-07	1.53036442309e-06	3.53757313601e+28	1.00614580627e-08	1.53036442309e-06
36	9.16916304853e+30	1.9483623251e-06	1.79940036397e-06	8.31753486471e+29	5.85285864139e-07	1.79940036397e-06	4.23243410742e+28	9.39928470038e-09	1.79940036397e-06
37	1.43735615396e+31	2.36884798666e-06	2.11573244975e-06	1.233637727e+30	6.92508985033e-07	2.11573244975e-06	5.02359505918e+28	8.79889625321e-09	2.11573244975e-06
38	2.25008485286e+31	2.90175931554e-06	2.48767527702e-06	1.81215583357e+30	8.1907115099e-07	2.48767527702e-06	5.9137329378e+28	8.26230631561e-09	2.48767527702e-06
39	3.51449433753e+31	3.58237999861e-06	2.92500513693e-06	2.63396915121e+30	9.68377796603e-07	2.92500513693e-06	6.90285252216e+28	7.79121596687e-09	2.92500513693e-06
40	5.47149360069e+31	4.45824649942e-06	3.43921697905e-06	3.7846013294e+30	1.14446569173e-06	3.43921697905e-06	7.98784625336e+28	7.38708161381e-09	3.43921697905e-06
41	8.47956870055e+31	5.5933931033e-06	4.0438265491e-06	5.37029340841e+30	1.35212445567e-06	4.0438265491e-06	9.16217600811e+28	7.05120608023e-09	4.0438265491e-06
42	1.30610881244e+32	7.07374756764e-06	4.75472564216e-06	7.51793810587e+30	1.59703954015e-06	4.75472564216e-06	1.04156780081e+29	6.78484816791e-09	4.75472564216e-06
43	1.99558159276e+32	9.01361028491e-06	5.59059980879e-06	1.03717267714e+31	1.88595944983e-06	5.59059980879e-06	1.17344266627e+29	6.58934126319e-09	5.59059980879e-06
44	3.01709772966e+32	1.15627156385e-05	6.57341949342e-06	1.40848590528e+31	2.22689018438e-06	6.57341949342e-06	1.31005013716e+29	6.4662056434e-09	6.57341949342e-06
45	4.50038845777e+32	1.49126020272e-05	7.7290175141e-06	1.88046039889e+31	2.62932021644e-06	7.7290175141e-06	1.44914020645e+29	6.41723249036e-09	7.7290175141e-06
46	6.59944052083e+32	1.92999138811e-05	9.08776806244e-06	2.46493713564e+31	3.10447985494e-06	9.08776806244e-06	1.58788032934e+29	6.44451189479e-09	9.08776806244e-06
47	9.47469361145e+32	2.49997538567e-05	1.06853850707e-05	3.16774932078e+31	3.66563969306e-06	1.06853850707e-05	1.72264086293e+29	6.55037579431e-09	1.06853850707e-05
48	1.32562773992e+33	3.23248950519e-05	1.2563860931e-05	3.98493254823e+31	4.32845412252e-06	1.2563860931e-05	1.84869779962e+29	6.73723530923e-09	1.2563860931e-05
49	1.79871847792e+33	4.15836221539e-05	1.47725702396e-05	4.8987090001e+31	5.11135770961e-06	1.47725702396e-05	1.95992303536e+29	7.00731621794e-09	1.47725702396e-05
50	2.35566277719e+33	5.30592246133e-05	1.73695675781e-05	5.8740287801e+31	6.03602461725e-06	1.73695675781e-05	2.04862010311e+29	7.36233760555e-09	1.73695675781e-05
51	2.96485156196e+33	6.69817903731e-05	2.04231134431e-05	6.85677351604e+31	7.12790416525e-06	2.04231134431e-05	2.10573903455e+29	7.80322589267e-09	2.04231134431e-05
52	3.57373879794e+33	8.35246273972e-05	2.40134684318e-05	7.77489699149e+31	8.4168488688e-06	2.40134684318e-05	2.12170101731e+29	8.32998251695e-09	2.40134684318e-05
53	4.11524600229e+33	0.000102833151046	2.82350028429e-05	8.54362570932e+31	9.93785462189e-06	2.82350028429e-05	2.08791884483e+29	8.94084107043e-09	2.82350028429e-05
54	4.52007869416e+33	0.000125081497851	3.31986771424e-05	9.07521853867e+31	1.17319358638e-05	3.31986771424e-05	1.99881728917e+29	9.63655775103e-09	3.31986771424e-05
55	4.73118138486e+33	0.000150538125272	3.90349584923e-05	9.29264675088e+31	1.38471614942e-05	3.90349584923e-05	1.85384873928e+29	1.04150038862e-08	3.90349584923e-05
56	4.71579194718e+33	0.000179619588186	4.58972500008e-05	9.14506994594e+31	1.63398800766e-05	4.58972500008e-05	1.65883237815e+29	1.12756860254e-08	4.58972500008e-05
57	4.47202092858e+33	0.000212921251886	5.39659228291e-05	8.62158045511e+31	1.92761657154e-05	5.39659228291e-05	1.42603593605e+29	1.22191119073e-08	5.39659228291e-05
58	4.02902375557e+33	0.000251217896827	6.34530571385e-05	7.75900549909e+31	2.27335192349e-05	6.34530571385e-05	1.17275637235e+29	1.32464972191e-08	6.34530571385e-05
59	3.44133237248e+33	0.000295491123866	7.46080164878e-05	6.64021238332e+31	2.68028633893e-05	7.46080164878e-05	9.18618202537e+28	1.4361165756e-08	7.46080164878e-05
60	2.77869209543e+33	0.000346906696686	8.77240022038e-05	5.38160628677e+31	3.1590876332e-05	8.77240022038e-05	6.82231147666e+28	1.55670206962e-08	8.77240022038e-05
61	2.11336238011e+33	0.000406828727011	0.000103145759999	4.11189353733e+31	3.7222715e-05	0.000103145759999	4.78083026513e+28	1.68686199531e-08	0.000103145759999
62	1.50749958699e+33	0.000476837801977	0.000121278641403	2.94750299472e+31	4.38451897075e-05	0.000121278641403	3.14495312715e+28	1.82707836302e-08	0.000121278641403
63	1.00355546841e+33	0.000558760809894	0.000142599258184	1.97176431506e+31	5.16304630999e-05	0.000142599258184	1.9313479207e+28	1.97781679596e-08	0.000142599258184
64	6.20038351059e+32	0.000654712270701	0.000167668009794	1.22393767258e+31	6.07803604364e-05	0.000167668009794	1.10065039691e+28	2.13948180471e-08	0.000167668009794
65	3.53372354796e+32	0.000767146556217	0.000197143813132	7.0061006479e+30	7.15313936901e-05	0.000197143813132	5.78333536284e+27	2.31236947885e-08	0.000197143813132
66	1.84535970887e+32	0.000898920519649	0.000231801421775	3.67360897878e+30	8.41606191226e-05	0.000231801421775	2.78237731013e+27	2.4966159535e-08	0.000231801421775
67	8.76615412572e+31	0.00105336655503	0.0002725517899	1.75168223244e+30	9.89924671693e-05	0.0002725517899	1.21641541734e+27	2.6921394072e-08	0.0002725517899
68	3.75834693878e+31	0.00123437681729	0.000320466016165	7.53616214682e+29	0.000116406705407	0.000320466016165	4.79319915258e+26	2.89857331415e-08	0.000320466016165
69	1.4419224648e+31	0.00144650009565	0.000376803496885	2.90057251935e+29	0.000136847721117	0.000376803496885	1.68734172739e+26	3.11518916887e-08	0.000376803496885
70	4.90499104748e+30	0.00169505352447	0.000443045028499	9.89597566696e+28	0.000160835340634	0.000443045028499	5.25597118486e+25	3.34080789801e-08	0.000443045028499
71	1.4647121092e+30	0.00198625189244	0.000520931729404	2.96312428203e+28	0.000188977439423	0.000520931729404	1.43373342107e+25	3.57370068705e-08	0.000520931729404
72	3.79836322668e+29	0.00232735780412	0.000612510804193	7.70331851712e+27	0.000221984640717	0.000612510804193	3.38662965117e+24	3.81148205641e-08	0.000612510804193
73	8.45473854782e+28	0.0027268564333	0.000720189353186	1.71861765578e+27	0.00026068745254	0.000720189353186	6.84324794411e+23	4.05100083041e-08	0.000720189353186
74	1.5950624995e+28	0.00319465915596	0.000846797641596	3.24919152781e+26	0.000306056253903	0.000846797641596	1.16740531565e+23	4.28823823529e-08	0.000846797641596
75	2.51590164834e+27	0.00374234100413	0.00099566349133	5.13495825534e+25	0.000359224611307	0.00099566349133	1.65743202858e+22	4.51822669632e-08	0.00099566349133
76	3.26907344092e+26	0.00438341764943	0.00117069975077	6.68415611933e+24	0.000421516486155	0.00117069975077	1.92829552943e+21	4.73500769779e-08	0.00117069975077
77	3.44363756261e+25	0.0051336684875	0.0013765071416	7.052716707e+23	0.000494477980792	0.0013765071416	1.80775374714e+20	4.93165167658e-08	0.0013765071416
78	2.89029696069e+24	0.00601151331546	0.00161849518601	5.92846235388e+22	0.000579914362621	0.00161849518601	1.34098370128e+19	5.10036623294e-08	0.00161849518601
79	1.89689497545e+23	0.00703845102225	0.00190302439266	3.89629366731e+21	0.000679933197423	0.00190302439266	7.71705578307e+17	5.23271936914e-08	0.00190302439266
