0-group 1-eemit(erg/ccm/s) 2-eabs(1/cm) 3-escat(1/cm) 4-aemit(erg/ccm/s) 5-aabs(1/cm) 6-ascat(1/cm) 7-hemit(erg/ccm/s) 8-habs(1/cm) 9-hscat(1/cm)
0	6.73382577424e+17	1.32398447593e-13	1.92420720439e-16	2.12252528137e+17	9.78668652713e-14	1.92420720439e-16	1.55031839869e+16	1.10899115573e-14	1.92420720439e-16
1	4.7378712319e+17	2.04880729969e-13	8.34599844003e-16	2.63512459997e+17	1.67292756532e-13	8.34599844003e-16	2.95168994822e+16	1.94104563331e-14	8.34599844003e-16
2	6.4671067445e+17	2.22600030507e-13	9.81321337855e-16	3.71841764683e+17	1.818950753e-13	9.81321337855e-16	4.33067980689e+16	2.12083493452e-14	9.81321337855e-16
3	8.75624856876e+17	2.41888131872e-13	1.15383626663e-15	5.17885511891e+17	1.97728787317e-13	1.15383626663e-15	6.26392760579e+16	2.31610514525e-14	1.15383626663e-15
4	1.17506220837e+18	2.6288904087e-13	1.35667908036e-15	7.11719424625e+17	2.14901059505e-13	1.35667908036e-15	8.92874602497e+16	2.52817845206e-14	1.35667908036e-15
5	1.56157979497e+18	2.85759255244e-13	1.59518137913e-15	9.64739658328e+17	2.33528311547e-13	1.59518137913e-15	1.25368388077e+17	2.75849203909e-14	1.59518137913e-15
6	2.05317994925e+18	3.10668546094e-13	1.8756120509e-15	1.28920044752e+18	2.53736879194e-13	1.8756120509e-15	1.73297492018e+17	3.00860640431e-14	1.8756120509e-15
7	2.66823322434e+18	3.37800750571e-13	2.20534204543e-15	1.69741768929e+18	2.75663666737e-13	2.20534204543e-15	2.35670478631e+17	3.28021333918e-14	2.20534204543e-15
8	3.42339198382e+18	3.67354317798e-13	2.59303811521e-15	2.20019311951e+18	2.99456488915e-13	2.59303811521e-15	3.15046367014e+17	3.57514355849e-14	2.59303811521e-15
9	4.33115266531e+18	3.99543556601e-13	3.0488906158e-15	2.80517687261e+18	3.25275022922e-13	3.0488906158e-15	4.13611253513e+17	3.89537412356e-14	3.0488906158e-15
10	5.39737236032e+18	4.34600012736e-13	3.5848813531e-15	3.5155017288e+18	3.5329170019e-13	3.5848813531e-15	5.32718704716e+17	4.24303577245e-14	3.5848813531e-15
11	6.62004616444e+18	4.72774119755e-13	4.21509851788e-15	4.32987961479e+18	3.83692567666e-13	4.21509851788e-15	6.7240207336e+17	4.62042209534e-14	4.21509851788e-15
12	7.97385799589e+18	5.14333773727e-13	4.95610698526e-15	5.22878017141e+18	4.16674632329e-13	4.95610698526e-15	8.30701070477e+17	5.02999266713e-14	4.95610698526e-15
13	9.41521149055e+18	5.59570781794e-13	5.82738371241e-15	6.1810570016e+18	4.52450675096e-13	5.82738371241e-15	1.00301401578e+18	5.47438025306e-14	5.82738371241e-15
14	1.08771861129e+19	6.08802744658e-13	6.85182967856e-15	7.14000293796e+18	4.9124870271e-13	6.85182967856e-15	1.18170289515e+18	5.95640054992e-14	6.85182967856e-15
15	1.22692444375e+19	6.62376937685e-13	8.05637182326e-15	8.04327146159e+18	5.33312630905e-13	8.05637182326e-15	1.35605703927e+18	6.47906121604e-14	8.05637182326e-15
16	1.3487187928e+19	7.20675491124e-13	9.47267080466e-15	8.8216877798e+18	5.79009317907e-13	9.47267080466e-15	1.51280451042e+18	7.04557079512e-14	9.47267080466e-15
17	1.44145891235e+19	7.84120475071e-13	1.11379531807e-14	9.3978662318e+18	6.31043712912e-13	1.11379531807e-14	1.6372865205e+18	7.65934708584e-14	1.11379531807e-14
18	1.49443092646e+19	8.53181259922e-13	1.30959898864e-14	9.70322975989e+18	6.88053307297e-13	1.30959898864e-14	1.7152768889e+18	8.32402401785e-14	1.30959898864e-14
19	1.49923746878e+19	9.28382126202e-13	1.53982467265e-14	9.68613448472e+18	7.50484050756e-13	1.53982467265e-14	1.73526429878e+18	9.04345565837e-14	1.53982467265e-14
20	1.4515517286e+19	1.0103112245e-12	1.81052371227e-14	9.32332754328e+18	8.19052176302e-13	1.81052371227e-14	1.69078227032e+18	9.82097578795e-14	1.81052371227e-14
21	1.35245409541e+19	1.09963038705e-12	2.12881126723e-14	8.62819058041e+18	8.94417879591e-13	2.12881126723e-14	1.58224433397e+18	1.066258376e-13	2.12881126723e-14
22	1.20891847111e+19	1.19708509577e-12	2.50305333246e-14	7.65284924122e+18	9.7729171373e-13	2.50305333246e-14	1.4177185799e+18	1.15719192933e-13	2.50305333246e-14
23	1.03323317154e+19	1.30351213763e-12	2.94308663317e-14	6.48313262187e+18	1.0684204814e-12	2.94308663317e-14	1.2122329239e+18	1.2553227675e-13	2.94308663317e-14
24	8.41351411431e+18	1.41983682234e-12	3.46047717722e-14	5.22675578265e+18	1.16868269122e-12	3.46047717722e-14	9.85552986847e+17	1.36113714214e-13	3.46047717722e-14
25	6.50126318832e+18	1.54703358994e-12	4.0688242606e-14	3.99367037706e+18	1.27905071255e-12	4.0688242606e-14	7.58833622944e+17	1.47512482104e-13	4.0688242606e-14
26	4.74668526656e+18	1.68596608242e-12	4.78411791663e-14	2.87930411053e+18	1.40059081263e-12	4.78411791663e-14	5.50941770319e+17	1.59775533474e-13	4.78411791663e-14
27	3.25938557077e+18	1.83684372471e-12	5.6251592043e-14	1.94946757476e+18	1.53447925618e-12	5.6251592043e-14	3.75412075835e+17	1.72947644958e-13	5.6251592043e-14
28	2.09423196461e+18	1.99758415484e-12	6.61405438268e-14	1.23309509489e+18	1.68200796137e-12	6.61405438268e-14	2.38847388142e+17	1.87069547179e-13	6.61405438268e-14
29	1.25213657329e+18	2.16017477439e-12	7.77679596049e-14	7.24541692906e+17	1.84458964475e-12	7.77679596049e-14	1.41095198386e+17	2.02175514511e-13	7.77679596049e-14
30	6.92504617247e+17	2.30946170468e-12	9.14394589336e-14	3.93070927739e+17	2.02376243041e-12	9.14394589336e-14	7.69198829299e+16	2.18290306399e-13	9.14394589336e-14
31	3.51964339485e+17	2.44147468464e-12	1.07514388863e-13	1.95571249778e+17	2.22119364269e-12	1.07514388863e-13	3.84436235197e+16	2.35425342961e-13	1.07514388863e-13
32	1.63239071448e+17	2.5828488832e-12	1.26415269157e-13	8.86019916699e+16	2.43868269289e-12	1.26415269157e-13	1.74881834665e+16	2.53573992997e-13	1.26415269157e-13
33	6.85594412154e+16	2.75108261616e-12	1.48638897965e-13	3.6262864751e+16	2.67816279538e-12	1.48638897965e-13	7.18464968819e+15	2.72705861504e-13	1.48638897965e-13
34	2.58603814201e+16	2.94259337643e-12	1.74769409864e-13	1.32945790811e+16	2.94170201777e-12	1.74769409864e-13	2.64314797924e+15	2.9275999225e-13	1.74769409864e-13
35	8.68210054721e+15	3.1409595845e-12	2.05493629475e-13	4.32573008388e+15	3.23150452545e-12	2.05493629475e-13	8.6276317501e+14	3.13636959108e-13	2.05493629475e-13
36	2.56934270998e+15	3.35461375448e-12	2.41619124238e-13	1.23671662793e+15	3.54991426242e-12	2.41619124238e-13	2.4738514442e+14	3.35189919532e-13	2.41619124238e-13
37	6.63226224991e+14	3.57368388846e-12	2.84095430825e-13	3.07314007795e+14	3.8994245973e-12	2.84095430825e-13	6.16390462535e+13	3.57214858236e-13	2.84095430825e-13
38	1.47641628305e+14	3.79490975461e-12	3.34039013138e-13	6.55956483212e+13	4.28269977042e-12	3.34039013138e-13	1.31894271012e+13	3.79440470869e-13	3.34039013138e-13
39	2.799816155e+13	4.0146630873e-12	3.92762607882e-13	1.18740192261e+13	4.70261662939e-12	3.92762607882e-13	2.39297156872e+12	4.01518436976e-13	3.92762607882e-13
40	4.4632870825e+12	4.22858290273e-12	4.61809729053e-13	1.79772378028e+12	5.16233861492e-12	4.61809729053e-13	363056521660.0	4.23015205195e-13	4.61809729053e-13
41	589593121353.0	4.43143654634e-12	5.42995238263e-13	224243165396.0	5.66543794685e-12	5.42995238263e-13	45374283365.2	4.43406844196e-13	5.42995238263e-13
42	63545829000.2	4.61709620681e-12	6.38453047278e-13	22672733772.7	6.2160859287e-12	6.38453047278e-13	4595847428.24	4.62078949221e-13	6.38453047278e-13
43	5495124893.35	4.7786071414e-12	7.50692206589e-13	1825541669.4	6.8193347775e-12	7.50692206589e-13	370650178.02	4.78333948135e-13	7.50692206589e-13
44	374415288.487	4.90835851896e-12	8.82662854277e-13	114829102.305	7.48151609448e-12	8.82662854277e-13	23349568.5171	4.91408289892e-13	8.82662854277e-13
45	19710718.4865	4.99837581289e-12	1.03783375861e-12	5526501.54478	8.21077961745e-12	1.03783375861e-12	1125327.73003	5.0050175087e-13	1.03783375861e-12
46	784893.093369	5.04074824242e-12	1.22028349249e-12	198970.288659	9.01778989811e-12	1.22028349249e-12	40566.8349791	5.04820281657e-13	1.22028349249e-12
47	23104.5474927	5.0281901979e-12	1.43480763627e-12	5229.27270393	9.91658676158e-12	1.43480763627e-12	1067.41727084	5.03632303019e-13	1.43480763627e-12
48	490.389548492	4.95471343165e-12	1.6870448267e-12	97.69860219	1.09255977571e-11	1.6870448267e-12	19.9641312321	4.96336129686e-13	1.6870448267e-12
49	7.30454979242	4.81635928011e-12	1.98362496502e-12	1.26077135479	1.20687688577e-11	1.98362496502e-12	0.25788689268	4.82533438048e-13	1.98362496502e-12
50	0.0741456846668	4.61191165912e-12	2.33234347989e-12	0.0108927434197	1.33767569114e-11	2.33234347989e-12	0.00223010789187	4.62100831091e-13	2.33234347989e-12
51	0.000496738447752	4.3434886151e-12	2.74236622552e-12	6.0911706167e-05	1.48881092246e-11	2.74236622552e-12	1.2481073846e-05	4.3524924733e-13	2.74236622552e-12
52	2.12126935053e-06	4.01690039481e-12	3.22447040058e-12	2.12518683832e-07	1.66503483511e-11	3.22447040058e-12	4.35792285148e-08	4.02559971601e-13	3.22447040058e-12
53	5.55927482839e-09	3.6416719039e-12	3.79132782029e-12	4.44583786459e-10	1.87208890173e-11	3.79132782029e-12	9.12303637939e-11	3.6498699458e-13	3.79132782029e-12
54	8.58020041409e-12	3.2306602893e-12	4.45783798737e-12	5.34977467215e-13	2.11677416093e-11	4.45783798737e-12	1.10529102173e-13	3.23818761054e-13	4.45783798737e-12
55	8.63957751132e-15	2.79925237735e-12	5.24151971648e-12	1.53756924956e-15	2.40700010342e-11	5.24151971648e-12	1.25814215173e-15	2.8059776133e-13	5.24151971648e-12
56	1.64296989947e-15	2.36419446116e-12	6.16297160553e-12	1.63961901551e-15	2.75181747366e-11	6.16297160553e-12	1.63952318138e-15	2.37003217817e-13	6.16297160553e-12
57	2.26661123607e-15	1.94217654739e-12	7.24641345737e-12	2.26661043461e-15	3.16144591495e-11	7.24641345737e-12	2.2666104184e-15	1.94709105147e-13	7.24641345737e-12
58	3.13359428125e-15	1.54835030692e-12	8.52032288256e-12	3.13359428116e-15	3.64731180028e-11	8.52032288256e-12	3.13359428116e-15	1.55235478543e-13	8.52032288256e-12
59	4.33220153642e-15	1.19499056708e-12	1.00181838161e-11	4.33220153642e-15	4.22211370915e-11	1.00181838161e-11	4.33220153642e-15	1.19814160399e-13	1.00181838161e-11
60	5.98927891369e-15	8.90503503241e-13	1.17793666221e-11	5.98927891369e-15	4.89993195489e-11	1.17793666221e-11	5.98927891369e-15	8.92891714489e-14	1.17793666221e-11
61	8.28019232354e-15	6.38936508972e-13	1.38501629203e-11	8.28019232354e-15	5.69639398172e-11	1.38501629203e-11	8.28019232354e-15	6.40674651589e-14	1.38501629203e-11
62	1.14473855539e-14	4.40060150552e-13	1.62850023327e-11	1.14473855539e-14	6.62889972694e-11	1.62850023327e-11	1.14473855539e-14	4.4127043216e-14	1.62850023327e-11
63	1.58260377174e-14	2.89987296084e-13	1.91478831334e-11	1.58260377174e-14	7.71690140083e-11	1.91478831334e-11	1.58260377174e-14	2.90789654389e-14	1.91478831334e-11
64	2.18795347334e-14	1.8219265378e-13	2.25140544041e-11	2.18795347334e-14	8.98222246779e-11	2.25140544041e-11	2.18795347334e-14	1.82695470832e-14	2.25140544041e-11
65	3.02485087358e-14	1.08724293794e-13	2.64719939107e-11	3.02485087358e-14	5.38689514929e-11	2.64719939107e-11	3.02485087358e-14	1.09018428877e-14	2.64719939107e-11
66	4.18186351717e-14	6.13776774517e-14	3.11257336877e-11	4.18186351717e-14	7.90943505318e-19	3.11257336877e-11	4.18186351717e-14	2.66415027085e-17	3.11257336877e-11
67	5.781436245e-14	2.57241282432e-19	3.65975944563e-11	5.781436245e-14	2.51456044606e-27	3.65975944563e-11	5.781436245e-14	3.87739063646e-26	3.65975944563e-11
68	7.99284934042e-14	6.69056327481e-29	4.30314007511e-11	7.99284934042e-14	1.52081313026e-36	4.30314007511e-11	7.99284934042e-14	8.46255495444e-33	4.30314007511e-11
69	1.10501331973e-13	3.44323772127e-38	5.05962612602e-11	1.10501331973e-13	1.571760374e-43	5.05962612602e-11	1.10501331973e-13	9.16541769518e-33	5.05962612602e-11
70	1.52768353908e-13	3.44186398738e-38	5.9491013744e-11	1.52768353908e-13	1.702678732e-43	5.9491013744e-11	1.52768353908e-13	9.93848561795e-33	5.9491013744e-11
71	2.11202612124e-13	3.73216205314e-38	6.99494513654e-11	2.11202612124e-13	1.8462880263e-43	6.99494513654e-11	2.11202612124e-13	1.07767560048e-32	6.99494513654e-11
72	2.91988112897e-13	4.04694457691e-38	8.22464678006e-11	2.91988112897e-13	2.00200968443e-43	8.22464678006e-11	2.91988112897e-13	1.16857281934e-32	8.22464678006e-11
73	4.03674259593e-13	4.38827663864e-38	9.67052826523e-11	4.03674259593e-13	2.17086529318e-43	9.67052826523e-11	4.03674259593e-13	1.26713653489e-32	9.67052826523e-11
74	5.5808062267e-13	4.75839749226e-38	1.13705937081e-10	5.5808062267e-13	2.35396260251e-43	1.13705937081e-10	5.5808062267e-13	1.3740133585e-32	1.13705937081e-10
75	7.71547786361e-13	5.15973525587e-38	1.33695282955e-10	7.71547786361e-13	2.55250279277e-43	1.33695282955e-10	7.71547786361e-13	1.48990443831e-32	1.33695282955e-10
76	1.06666664718e-12	5.5949228411e-38	1.57198728082e-10	1.06666664718e-12	2.76778835482e-43	1.57198728082e-10	1.06666664718e-12	1.61557005903e-32	1.57198728082e-10
77	1.4746691732e-12	6.06681522586e-38	1.84834046231e-10	1.4746691732e-12	3.00123163482e-43	1.84834046231e-10	1.4746691732e-12	1.75183462969e-32	1.84834046231e-10
78	2.0387336345e-12	6.57850818395e-38	2.17327614942e-10	2.0387336345e-12	3.25436409973e-43	2.17327614942e-10	2.0387336345e-12	1.89959209201e-32	2.17327614942e-10
79	2.81855409197e-12	7.13335859443e-38	2.55533507921e-10	2.81855409197e-12	3.52884638421e-43	2.55533507921e-10	2.81855409197e-12	2.05981178496e-32	2.55533507921e-10
