0-group 1-eemit(erg/ccm/s) 2-eabs(1/cm) 3-escat(1/cm) 4-aemit(erg/ccm/s) 5-aabs(1/cm) 6-ascat(1/cm) 7-hemit(erg/ccm/s) 8-habs(1/cm) 9-hscat(1/cm)
0	4.10941217532e+26	2.02099478731e-06	5.81258403806e-09	2.19254205945e+26	3.68077111463e-06	5.81258403806e-09	3.27857280346e+26	2.41080433751e-06	5.81258403806e-09
1	2.18281741623e+26	1.88147302954e-06	2.52113271396e-08	1.15894431075e+26	3.4599605556e-06	2.52113271396e-08	1.71787032273e+26	2.22727891206e-06	2.52113271396e-08
2	2.99179044803e+26	1.86712300534e-06	2.96434434484e-08	1.58348187349e+26	3.43302531596e-06	2.96434434484e-08	2.34400506523e+26	2.20339933504e-06	2.96434434484e-08
3	4.09973031818e+26	1.85265284821e-06	3.48547196509e-08	2.16196104248e+26	3.4047417097e-06	3.48547196509e-08	3.19573710013e+26	2.17839471692e-06	3.48547196509e-08
4	5.61702227554e+26	1.83814977749e-06	4.09821309747e-08	2.94948853025e+26	3.37506112438e-06	4.09821309747e-08	4.35316692124e+26	2.15223043328e-06	4.09821309747e-08
5	7.69493447924e+26	1.82371985579e-06	4.81867327022e-08	4.0205754511e+26	3.34393613815e-06	4.81867327022e-08	5.92430557034e+26	2.12487356945e-06	4.81867327022e-08
6	1.05409208124e+27	1.80949117211e-06	5.66578934108e-08	5.47582576836e+26	3.31132101161e-06	5.66578934108e-08	8.05456460049e+26	2.09629337404e-06	5.66578934108e-08
7	1.44397857185e+27	1.79561752728e-06	6.6618272411e-08	7.4508660569e+26	3.27717221713e-06	6.6618272411e-08	1.09393692331e+27	2.06646173804e-06	6.6618272411e-08
8	1.97830514885e+27	1.78228270995e-06	7.83296722108e-08	1.01282394038e+27	3.24144900629e-06	7.83296722108e-08	1.48408774073e+27	2.03535369883e-06	7.83296722108e-08
9	2.71098633816e+27	1.76970546932e-06	9.20999198359e-08	1.37532070275e+27	3.20411401641e-06	9.20999198359e-08	2.01100770498e+27	2.00294796809e-06	9.20999198359e-08
10	3.71642210452e+27	1.75814531234e-06	1.08290957875e-07	1.86546840081e+27	3.1651339169e-06	1.08290957875e-07	2.72159004173e+27	1.9692274828e-06	1.08290957875e-07
11	5.09754652499e+27	1.74790927876e-06	1.27328357923e-07	2.52728955002e+27	3.12448009615e-06	1.27328357923e-07	3.67834545032e+27	1.93417997776e-06	1.27328357923e-07
12	6.99721297353e+27	1.73935987943e-06	1.49712506469e-07	3.41957947113e+27	3.08212938881e-06	1.49712506469e-07	4.96440389277e+27	1.8977985777e-06	1.49712506469e-07
13	9.61440350535e+27	1.73292442183e-06	1.76031757251e-07	4.62068541769e+27	3.03806484285e-06	1.76031757251e-07	6.69003274333e+27	1.86008240602e-06	1.76031757251e-07
14	1.3227470504e+28	1.72910599435e-06	2.06977895781e-07	6.23475501756e+27	2.99227652464e-06	2.06977895781e-07	9.0010946135e+27	1.82103720617e-06	2.06977895781e-07
15	1.82277157745e+28	1.72849644035e-06	2.433643225e-07	8.39987307853e+27	2.94476235911e-06	2.433643225e-07	1.20899709033e+28	1.78067597044e-06	2.433643225e-07
16	2.51682953251e+28	1.73179172625e-06	2.86147432519e-07	1.13004442495e+28	2.89600818801e-06	2.86147432519e-07	1.62095981575e+28	1.73901956939e-06	2.86147432519e-07
17	3.4836037155e+28	1.73981020012e-06	3.36451753881e-07	1.52286357985e+28	2.85548528096e-06	3.36451753881e-07	2.16914038444e+28	1.69609737339e-06	3.36451753881e-07
18	4.835779688e+28	1.75351435318e-06	3.95599505097e-07	2.05056874538e+28	2.81581717494e-06	3.95599505097e-07	2.89680846696e+28	1.65194785614e-06	3.95599505097e-07
19	6.73592810357e+28	1.77403684313e-06	4.6514534886e-07	2.75945538731e+28	2.77777851207e-06	4.6514534886e-07	3.86023396683e+28	1.60661916791e-06	4.6514534886e-07
20	9.42041587812e+28	1.80271172499e-06	5.46917255401e-07	3.71281777429e+28	2.74281224977e-06	5.46917255401e-07	5.13228436287e+28	1.56016966432e-06	5.46917255401e-07
21	1.32356859597e+29	1.84111207404e-06	6.43064549583e-07	4.99662519724e+28	2.71209643449e-06	6.43064549583e-07	6.80689095518e+28	1.5126683745e-06	6.43064549583e-07
22	1.86937067109e+29	1.89109549321e-06	7.56114404596e-07	6.72863379654e+28	2.68692948689e-06	7.56114404596e-07	9.00454194359e+28	1.46419539055e-06	7.56114404596e-07
23	2.65572915289e+29	1.95485939647e-06	8.89038267167e-07	9.07132642364e+28	2.66881211868e-06	8.89038267167e-07	1.18789667595e+29	1.41484215825e-06	8.89038267167e-07
24	3.79721816846e+29	2.03500848072e-06	1.04532996023e-06	1.22507132388e+29	2.65949731559e-06	1.04532996023e-06	1.5625171325e+29	1.36471164766e-06	1.04532996023e-06
25	5.46726359189e+29	2.13463748327e-06	1.22909751595e-06	1.65839231828e+29	2.66103714292e-06	1.22909751595e-06	2.04889615945e+29	1.31391838084e-06	1.22909751595e-06
26	7.93029615954e+29	2.25743322858e-06	1.44517115282e-06	2.25200141683e+29	2.67583332137e-06	1.44517115282e-06	2.67780445794e+29	1.26258829332e-06	1.44517115282e-06
27	1.15922441931e+30	2.40780117608e-06	1.69923023508e-06	3.07006954856e+29	2.70669444778e-06	1.69923023508e-06	3.48747117273e+29	1.21085840595e-06	1.69923023508e-06
28	1.70801033176e+30	2.59102330483e-06	1.99795255126e-06	4.20510417717e+29	2.75690181329e-06	1.99795255126e-06	4.52499766785e+29	1.15887628458e-06	1.99795255126e-06
29	2.53676916643e+30	2.81345636747e-06	2.3491898359e-06	5.79152858086e+29	2.83028566427e-06	2.3491898359e-06	5.847884416e+29	1.10679926691e-06	2.3491898359e-06
30	3.79748669634e+30	3.0827825425e-06	2.76217414754e-06	8.02600967774e+29	2.93131393638e-06	2.76217414754e-06	7.52561147307e+29	1.05479343897e-06	2.76217414754e-06
31	5.72837031999e+30	3.4083286307e-06	3.24776052779e-06	1.11978298821e+30	3.06519583482e-06	3.24776052779e-06	9.6411768355e+29	1.00303234853e-06	3.24776052779e-06
32	8.70409834377e+30	3.80147563967e-06	3.81871231952e-06	1.57340934911e+30	3.23800309978e-06	3.81871231952e-06	1.22924509985e+30	9.51695448741e-07	3.81871231952e-06
33	1.33157539379e+31	4.2761885448e-06	4.49003664355e-06	2.22666352081e+30	3.45681239008e-06	4.49003664355e-06	1.55931503283e+30	9.00966273748e-07	4.49003664355e-06
34	2.04980416886e+31	4.84970716865e-06	5.27937885171e-06	3.17303152856e+30	3.72987295208e-06	5.27937885171e-06	1.96731680436e+30	8.51030357945e-07	5.27937885171e-06
35	3.17317640928e+31	5.54345488009e-06	6.20748632417e-06	4.55060926472e+30	4.06680464078e-06	6.20748632417e-06	2.46779336121e+30	8.02072922555e-07	6.20748632417e-06
36	4.93659448765e+31	6.38424421765e-06	7.29875380174e-06	6.56269595219e+30	4.47883244714e-06	7.29875380174e-06	3.07664063651e+30	7.54276367185e-07	7.29875380174e-06
37	7.71298219153e+31	7.40589054877e-06	8.58186458681e-06	9.50704538669e+30	4.97906498854e-06	8.58186458681e-06	3.81072584277e+30	7.07817619389e-07	8.58186458681e-06
38	1.20945386451e+32	8.65139079418e-06	1.00905444665e-05	1.38167714984e+31	5.58282595925e-06	1.00905444665e-05	4.68727817714e+30	6.62865411906e-07	1.00905444665e-05
39	1.90214023318e+32	1.01758902837e-05	1.18644481744e-05	2.01165098706e+31	6.30804933525e-06	1.18644481744e-05	5.72300854427e+30	6.19577574249e-07	1.18644481744e-05
40	2.99847569873e+32	1.20507558275e-05	1.39502016913e-05	2.92978622305e+31	7.175751191e-06	1.39502016913e-05	6.93292569794e+30	5.78098441867e-07	1.39502016913e-05
41	4.73460993423e+32	1.43692094627e-05	1.64026277808e-05	4.26181211336e+31	8.21059331481e-06	1.64026277808e-05	8.32883733963e+30	5.3855650085e-07	1.64026277808e-05
42	7.48362590381e+32	1.72541717531e-05	1.9286186972e-05	6.182535576e+31	9.44155638708e-06	1.9286186972e-05	9.91755851695e+30	5.01062397611e-07	1.9286186972e-05
43	1.18329425515e+33	2.08692370755e-05	2.26766718655e-05	8.93105175722e+31	1.0902743282e-05	2.26766718655e-05	1.16988973367e+31	4.65707449181e-07	2.26766718655e-05
44	1.87031362887e+33	2.54340794138e-05	2.66631992961e-05	1.28282487337e+32	1.26343360252e-05	2.66631992961e-05	1.36635485159e+31	4.32562788508e-07	2.66631992961e-05
45	2.95277787276e+33	3.12460838958e-05	3.13505527143e-05	1.82953998761e+32	1.46837330439e-05	3.13505527143e-05	1.5791094031e+31	4.01679267637e-07	3.13505527143e-05
46	4.65203164408e+33	3.87106094112e-05	3.68619363557e-05	2.58714264449e+32	1.71068965515e-05	3.68619363557e-05	1.80483775377e+31	3.73088216771e-07	3.68619363557e-05
47	7.30591840522e+33	4.83829334977e-05	4.33422135894e-05	3.6224744863e+32	1.99699432237e-05	4.33422135894e-05	2.03885698186e+31	3.46803114822e-07	4.33422135894e-05
48	1.14221091172e+34	6.10253732122e-05	5.0961714564e-05	5.01535457818e+32	2.33510148422e-05	5.0961714564e-05	2.27512550403e+31	3.22822162309e-07	5.0961714564e-05
49	1.77473705128e+34	7.76827528899e-05	5.99207132312e-05	6.85661308444e+32	2.73424694983e-05	5.99207132312e-05	2.50638173988e+31	3.01131654486e-07	5.99207132312e-05
50	2.7348230412e+34	9.97771809093e-05	7.04546914259e-05	9.24310890485e+32	3.2053438645e-05	7.04546914259e-05	2.72442727537e+31	2.81676215818e-07	7.04546914259e-05
51	4.16858923977e+34	0.000129217116931	8.28405283622e-05	1.22686526722e+33	3.76128013266e-05	8.28405283622e-05	2.92054614796e+31	2.64498338166e-07	8.28405283622e-05
52	6.26453306619e+34	0.000168481418325	9.74037782359e-05	1.6009954819e+33	4.41726351104e-05	9.74037782359e-05	3.08602182523e+31	2.49538239541e-07	9.74037782359e-05
53	9.24453374665e+34	0.00022076589278	0.000114527227219	2.05073216447e+33	5.19122146273e-05	0.000114527227219	3.2126832055e+31	2.36772747781e-07	0.000114527227219
54	1.33324975544e+35	0.000289839162927	0.000134660954759	2.57409613743e+33	6.10426444265e-05	0.000134660954759	3.29339364132e+31	2.26181727436e-07	0.000134660954759
55	1.86907869239e+35	0.000379907510379	0.000158334163648	3.16054750885e+33	7.18121287567e-05	0.000158334163648	3.32240986658e+31	2.17746046232e-07	0.000158334163648
56	2.53246578772e+35	0.000495190208607	0.000186169089792	3.78872370617e+33	8.45016551495e-05	0.000186169089792	3.29559375586e+31	2.11442915148e-07	0.000186169089792
57	3.29778813395e+35	0.000639378182955	0.000218897357309	4.42514596911e+33	9.947412223e-05	0.000218897357309	3.21055091918e+31	2.07239702625e-07	0.000218897357309
58	4.10699006624e+35	0.000815185922109	0.000257379208816	5.02469876698e+33	0.00011712209113	0.000257379208816	3.06685028143e+31	2.05088571079e-07	0.000257379208816
59	4.87313695852e+35	0.00102430208458	0.000302626116391	5.53362178261e+33	0.000137917112502	0.000302626116391	2.86647184452e+31	2.04924854129e-07	0.000302626116391
60	5.49585439398e+35	0.00126791408802	0.000355827367499	5.89539963328e+33	0.000162412201935	0.000355827367499	2.61448384176e+31	2.06671150694e-07	0.000355827367499
61	5.88421391914e+35	0.00154767175754	0.00041838132469	6.05925073186e+33	0.000191255948311	0.00041838132469	2.31971177698e+31	2.10246725889e-07	0.00041838132469
62	5.97833930575e+35	0.0018667066177	0.000491932180707	5.98998848985e+33	0.000225209164472	0.000491932180707	1.99498105006e+31	2.15579331615e-07	0.000491932180707
63	5.7623115258e+35	0.00223034804703	0.000578413175097	5.67710665861e+33	0.000265164506187	0.000578413175097	1.65653993967e+31	2.22615619535e-07	0.000578413175097
64	5.26584786076e+35	0.002646306191	0.000680097408235	5.1404184993e+33	0.000312155548414	0.000680097408235	1.32252103546e+31	2.31317073896e-07	0.000680097408235
65	4.55638667954e+35	0.00312490497611	0.000799657588384	4.42986395242e+33	0.000367415304347	0.000799657588384	1.01065848658e+31	2.41687171255e-07	0.000799657588384
66	3.72478701793e+35	0.00367879952801	0.000940236282211	3.61839566228e+33	0.000432382998302	0.000940236282211	7.35782692954e+30	2.53746480988e-07	0.000940236282211
67	2.86794926735e+35	0.00432293415704	0.00110552851524	2.78894866359e+33	0.000508745874536	0.00110552851524	5.07744134398e+30	2.67531638051e-07	0.00110552851524
68	2.07170726449e+35	0.0050746396959	0.00129987889335	2.01868441862e+33	0.000598482608345	0.00129987889335	3.3032785963e+30	2.8308888012e-07	0.00129987889335
69	1.39747388159e+35	0.00595388446163	0.0015283957981	1.36499461819e+33	0.000703913039154	0.0015283957981	2.01435357186e+30	3.00466430799e-07	0.0015283957981
70	8.75581021368e+34	0.00698368580749	0.00179708565745	8.57376576309e+32	0.000827756162738	0.00179708565745	1.14423586939e+30	3.19706965662e-07	0.00179708565745
71	5.06519709352e+34	0.00819066533921	0.00211301082103	4.97200148789e+32	0.000973197754756	0.00211301082103	6.01425116765e+29	3.4084016666e-07	0.00211301082103
72	2.68779631092e+34	0.00960573205243	0.00248447518975	2.64442631161e+32	0.00114396922545	0.00248447518975	2.90410023611e+29	3.63875087359e-07	0.00248447518975
73	1.29894834562e+34	0.0112648849668	0.00292124247877	1.28072836241e+32	0.00134443956385	0.00292124247877	1.27834163188e+29	3.88791912588e-07	0.00292124247877
74	5.67299999565e+33	0.0132101371484	0.00343479285081	5.6044975148e+31	0.00157972252782	0.00343479285081	5.08712689048e+28	4.15532678702e-07	0.00343479285081
75	2.22028199704e+33	0.0154905739396	0.00403862466526	2.19746774346e+31	0.00185580158609	0.00403862466526	1.81382503239e+28	4.43990599427e-07	0.00403862466526
76	7.71660944482e+32	0.0181635679131	0.00474860927435	7.65010708017e+30	0.00217967553341	0.00474860927435	5.73878139075e+27	4.739977976e-07	0.00474860927435
77	2.35826637694e+32	0.0212961807056	0.00558340819201	2.34153870284e+30	0.00255952819562	0.00558340819201	1.5944835567e+27	5.05311467474e-07	0.00558340819201
78	6.27021563946e+31	0.0249667878039	0.0065649636004	6.23453248353e+29	0.00300492623166	0.0065649636004	3.84690640309e+26	5.37598791905e-07	0.0065649636004
79	1.43381296156e+31	0.0292669675898	0.00771907508683	1.42750163762e+29	0.00352704973923	0.00771907508683	7.96191537161e+25	5.70421329499e-07	0.00771907508683
