0-group 1-eemit(erg/ccm/s) 2-eabs(1/cm) 3-escat(1/cm) 4-aemit(erg/ccm/s) 5-aabs(1/cm) 6-ascat(1/cm) 7-hemit(erg/ccm/s) 8-habs(1/cm) 9-hscat(1/cm)
0	3.4283716987e+27	1.52453517171e-05	1.12069576034e-08	1.34727902793e+27	3.70892950819e-05	1.12069576034e-08	2.61913283598e+27	2.01519554782e-05	1.12069576034e-08
1	1.84685022841e+27	1.43587462318e-05	4.86087207564e-08	7.36865133706e+26	3.56976591491e-05	4.86087207564e-08	1.41180000979e+27	1.90534399258e-05	4.86087207564e-08
2	2.5328408819e+27	1.4248960559e-05	5.71540663791e-08	1.01165200821e+27	3.55269729521e-05	5.71540663791e-08	1.93432860214e+27	1.89066356875e-05	5.71540663791e-08
3	3.47234120393e+27	1.41351912128e-05	6.72016718983e-08	1.3882525479e+27	3.5346814567e-05	6.72016718983e-08	2.64872502426e+27	1.87521832727e-05	6.72016718983e-08
4	4.75853873462e+27	1.40175371655e-05	7.9015632518e-08	1.9040833827e+27	3.51567460744e-05	7.9015632518e-08	3.62473973677e+27	1.85897711576e-05	7.9015632518e-08
5	6.51870764585e+27	1.38961518047e-05	9.29064710127e-08	2.61016915463e+27	3.49563238398e-05	9.29064710127e-08	4.9571596286e+27	1.84190888371e-05	9.29064710127e-08
6	8.92663744237e+27	1.37712530878e-05	1.09239299629e-07	3.57602581174e+27	3.47451006546e-05	1.09239299629e-07	6.77464958325e+27	1.82398289994e-05	1.09239299629e-07
7	1.22195982467e+28	1.36431351991e-05	1.28443416841e-07	4.8962661648e+27	3.45226281239e-05	1.28443416841e-07	9.25165119236e+27	1.80516898853e-05	1.28443416841e-07
8	1.67215147074e+28	1.3512181953e-05	1.51023591196e-07	6.69952142753e+27	3.42884593231e-05	1.51023591196e-07	1.26243665658e+28	1.78543778403e-05	1.51023591196e-07
9	2.28746524671e+28	1.33788822268e-05	1.77573328853e-07	9.16047095849e+27	3.40421517458e-05	1.77573328853e-07	1.72121879158e+28	1.76476100686e-05	1.77573328853e-07
10	3.12830036409e+28	1.32438477602e-05	2.08790473531e-07	1.25160345189e+28	3.37832705699e-05	2.08790473531e-07	2.34463683214e+28	1.74311176017e-05	2.08790473531e-07
11	4.27717980588e+28	1.31078337187e-05	2.45495548901e-07	1.70871262038e+28	3.35113922694e-05	2.45495548901e-07	3.19082945696e+28	1.72046484882e-05	2.45495548901e-07
12	5.84693227189e+28	1.29717624902e-05	2.88653325563e-07	2.33078211618e+28	3.32261085998e-05	2.88653325563e-07	4.33804549751e+28	1.6967971218e-05	2.88653325563e-07
13	7.99197370124e+28	1.28367512668e-05	3.39398179442e-07	3.17643760683e+28	3.29270309863e-05	3.39398179442e-07	5.89141375507e+28	1.67209296656e-05	3.39398179442e-07
14	1.09239176921e+29	1.27041440649e-05	3.99063908182e-07	4.32473105625e+28	3.26137953413e-05	3.99063908182e-07	7.99191001256e+28	1.64632455056e-05	3.99063908182e-07
15	1.49332679274e+29	1.25755489578e-05	4.69218789197e-07	5.88207472283e+28	3.22860673339e-05	4.69218789197e-07	1.08281987534e+29	1.61948193534e-05	4.69218789197e-07
16	2.0419713984e+29	1.2452881437e-05	5.51706800894e-07	7.99183115722e+28	3.19450801646e-05	5.51706800894e-07	1.46522206091e+29	1.5915540498e-05	5.51706800894e-07
17	2.79346898558e+29	1.23384149935e-05	6.48696090525e-07	1.08565387684e+29	3.16208063647e-05	6.48696090525e-07	1.97996386796e+29	1.56253393517e-05	6.48696090525e-07
18	3.82415564944e+29	1.22348402207e-05	7.62735962617e-07	1.47339925559e+29	3.12894691599e-05	7.62735962617e-07	2.67165568921e+29	1.53241922385e-05	7.62735962617e-07
19	5.24013393135e+29	1.21453339948e-05	8.96823885894e-07	1.99773380288e+29	3.09533386526e-05	8.96823885894e-07	3.59942911967e+29	1.50121263439e-05	8.96823885894e-07
20	7.18958659825e+29	1.20736406012e-05	1.05448427992e-06	2.70630694054e+29	3.06168649838e-05	1.05448427992e-06	4.84144190101e+29	1.46892247834e-05	1.05448427992e-06
21	9.88061621261e+29	1.20241670565e-05	1.23986115233e-06	3.66321222367e+29	3.02837178222e-05	1.23986115233e-06	6.50068616709e+29	1.43556317319e-05	1.23986115233e-06
22	1.36073266504e+30	1.20020953449e-05	1.45782702154e-06	4.95475910948e+29	2.99580306395e-05	1.45782702154e-06	8.71243730424e+29	1.40115575491e-05	1.45782702154e-06
23	1.87883121107e+30	1.20135148645e-05	1.71411098794e-06	6.69728924434e+29	2.96446807342e-05	1.71411098794e-06	1.16537512672e+30	1.36572838153e-05	1.71411098794e-06
24	2.60239901696e+30	1.20655790998e-05	2.01544931982e-06	9.04786095682e+29	2.93494709518e-05	2.01544931982e-06	1.55554961637e+30	1.32931681833e-05	2.01544931982e-06
25	3.61827915345e+30	1.2166691429e-05	2.36976251208e-06	1.22189503423e+30	2.90793053574e-05	2.36976251208e-06	2.07174865028e+30	1.2919648933e-05	2.36976251208e-06
26	5.05318738956e+30	1.23267260955e-05	2.78636347162e-06	1.64988249971e+30	2.88423816397e-05	2.78636347162e-06	2.75273705483e+30	1.2537249102e-05	2.78636347162e-06
27	7.09369997437e+30	1.2557291788e-05	3.27620230146e-06	2.22800035883e+30	2.86484100961e-05	3.27620230146e-06	3.64839943402e+30	1.21465800493e-05	3.27620230146e-06
28	1.0017049446e+31	1.28720470631e-05	3.85215411752e-06	3.00993460915e+30	2.85088661458e-05	3.85215411752e-06	4.82260173957e+30	1.1748344295e-05	3.85215411752e-06
29	1.423889667e+31	1.32870791328e-05	4.52935746321e-06	4.06950149918e+30	2.84372830021e-05	4.52935746321e-06	6.35665664302e+30	1.13433374661e-05	4.52935746321e-06
30	2.0387883691e+31	1.38213604781e-05	5.32561221688e-06	5.50880893049e+30	2.84495917086e-05	5.32561221688e-06	8.35346591437e+30	1.09324491686e-05	5.32561221688e-06
31	2.94225874264e+31	1.44973015594e-05	6.26184745075e-06	7.47004174238e+30	2.85645167844e-05	6.26184745075e-06	1.09423976204e+31	1.05166625977e-05	6.26184745075e-06
32	4.28158019426e+31	1.53414228595e-05	7.3626715389e-06	1.01525968583e+31	2.88040370994e-05	7.3626715389e-06	1.42849262613e+31	1.0097052698e-05	7.3626715389e-06
33	6.2845980447e+31	1.63851760289e-05	8.65701897342e-06	1.38381358063e+31	2.91939233113e-05	8.65701897342e-06	1.85810146506e+31	9.67478268728e-06	8.65701897342e-06
34	9.30595328581e+31	1.76659525672e-05	1.01789108899e-05	1.89273608236e+31	2.97643652762e-05	1.01789108899e-05	2.40761412424e+31	9.25109877088e-06	1.01789108899e-05
35	1.39005878716e+32	1.92283300556e-05	1.19683492924e-05	2.59941264054e+31	3.05507053663e-05	1.19683492924e-05	3.10687690467e+31	8.82732289429e-06	1.19683492924e-05
36	2.09408275498e+32	2.11256215718e-05	1.40723684816e-05	3.58650987644e+31	3.1594296668e-05	1.40723684816e-05	3.99179057609e+31	8.40484341422e-06	1.40723684816e-05
37	3.18031126954e+32	2.34218151455e-05	1.65462713232e-05	4.9736866719e+31	3.29435086991e-05	1.65462713232e-05	5.10502141432e+31	7.98510361341e-06	1.65462713232e-05
38	4.86660374844e+32	2.61940192099e-05	1.94550828497e-05	6.93475538291e+31	3.46549077052e-05	1.94550828497e-05	6.49658949794e+31	7.56958804399e-06	1.94550828497e-05
39	7.49861900386e+32	2.95355701909e-05	2.2875259404e-05	9.72270023809e+31	3.67946439066e-05	2.2875259404e-05	8.22422859035e+31	7.15980675909e-06	2.2875259404e-05
40	1.16257739119e+33	3.35600142994e-05	2.68966982482e-05	1.37058921844e+32	3.94400844393e-05	2.68966982482e-05	1.0353381046e+32	6.75727758268e-06	2.68966982482e-05
41	1.81224185763e+33	3.84062539327e-05	3.1625100458e-05	1.94200349697e+32	4.26817383498e-05	3.1625100458e-05	1.29566598648e+32	6.36350667393e-06	3.1625100458e-05
42	2.8380919286e+33	4.42452594658e-05	3.71847492116e-05	2.76418407518e+32	4.66279469716e-05	3.71847492116e-05	1.61125825426e+32	5.97996776191e-06	3.71847492116e-05
43	4.46187810271e+33	5.12889034344e-05	4.37217764972e-05	3.94921088883e+32	5.13983525319e-05	4.37217764972e-05	1.99033640768e+32	5.6080805574e-06	4.37217764972e-05
44	7.0365965301e+33	5.98016958451e-05	5.14080041039e-05	5.65776017194e+32	5.7140331781e-05	5.14080041039e-05	2.44115580096e+32	5.24918898512e-06	5.14080041039e-05
45	1.11235564809e+34	7.01165142607e-05	6.04454598527e-05	8.11825258443e+32	6.40242570234e-05	6.04454598527e-05	2.97153654286e+32	4.90454001594e-06	6.04454598527e-05
46	1.76137226554e+34	8.26558683793e-05	7.10716877749e-05	1.16520907931e+33	7.22500082458e-05	7.10716877749e-05	3.58825043399e+32	4.57526400401e-06	7.10716877749e-05
47	2.79176548931e+34	9.79608662173e-05	8.35659918127e-05	1.67059682677e+33	8.20522579373e-05	8.35659918127e-05	4.29626571517e+32	4.26235753717e-06	8.35659918127e-05
48	4.42605304708e+34	0.0001167309193	9.82567771539e-05	2.38917376399e+33	9.37067312579e-05	9.82567771539e-05	5.09786998909e+32	3.96666987459e-06	9.82567771539e-05
49	7.01356701608e+34	0.000139878402488	0.000115530182162	3.40332820567e+33	0.000107537616273	0.000115530182162	5.99171628005e+32	3.68889405511e-06	0.000115530182162
50	1.10992057005e+35	0.000168604013437	0.000135840227789	4.82179862209e+33	0.000123926325592	0.000135840227789	6.97186637372e+32	3.42956369029e-06	0.000135840227789
51	1.75256791008e+35	0.000204500416142	0.000159720751239	6.78474956681e+33	0.000143321840053	0.000159720751239	8.02693585674e+32	3.18905628052e-06	0.000159720751239
52	2.75815301559e+35	0.000249693642275	0.000187799437558	9.46782936052e+33	0.000166252897394	0.000187799437558	9.1394706184e+32	2.96760357767e-06	0.000187799437558
53	4.32072353969e+35	0.000307032921343	0.000220814317947	1.30837234174e+34	0.000193342324667	0.000220814317947	1.028569628e+33	2.76530902363e-06	0.000220814317947
54	6.72656458737e+35	0.000380338444096	0.000259633168473	1.78790988007e+34	0.000225323853594	0.000259633168473	1.14357694934e+33	2.58217157745e-06	0.000259633168473
55	1.03863674542e+36	0.000474709807157	0.000305276319027	2.41242503715e+34	0.000263061804884	0.000305276319027	1.25546131471e+33	2.4181142673e-06	0.000305276319027
56	1.58668187164e+36	0.000596812677304	0.000358943472079	3.20924139732e+34	0.00030757408357	0.000358943472079	1.36033310532e+33	2.2730145639e-06	0.000358943472079
57	2.39077811261e+36	0.000755473159617	0.000422045236128	4.20259232459e+34	0.000360058996924	0.000422045236128	1.45410785433e+33	2.14673226885e-06	0.000422045236128
58	3.53991439771e+36	0.00096158207187	0.00049624020269	5.4087558081e+34	0.000421926495433	0.00049624020269	1.5327141174e+33	2.03912935416e-06	0.00049624020269
59	5.1278932205e+36	0.00122826133118	0.000583478541364	6.82979757302e+34	0.000494834553884	0.000583478541364	1.5922898681e+33	1.95007574663e-06	0.000583478541364
60	7.23127313668e+36	0.00157029021279	0.000686053258858	8.44642809249e+34	0.00058065428746	0.000686053258858	1.6293399627e+33	1.87943649428e-06	0.000686053258858
61	9.87436596084e+36	0.00200298003691	0.000806660469278	1.02110410442e+35	0.000681815754103	0.000806660469278	1.64085035887e+33	1.82704023292e-06	0.000806660469278
62	1.29877412534e+37	0.00254061795458	0.000948470259844	1.20426186917e+35	0.000801043329111	0.000948470259844	1.62439374716e+33	1.79263657872e-06	0.000948470259844
63	1.63768521801e+37	0.00319507843414	0.00111521001471	1.38256789077e+35	0.000941295839178	0.00111521001471	1.57829766002e+33	1.77585869715e-06	0.00111521001471
64	1.97225050271e+37	0.00397547957078	0.00131126238698	1.54155248188e+35	0.00110623534426	0.00131126238698	1.50194714645e+33	1.77621151109e-06	0.00131126238698
65	2.26261049731e+37	0.00488950318095	0.00154178049411	1.66514368171e+35	0.00130044483041	0.00154178049411	1.39623297043e+33	1.79305630015e-06	0.00154178049411
66	2.46910314462e+37	0.00594618422123	0.00181282336444	1.73779100314e+35	0.00152902276847	0.00181282336444	1.26404413367e+33	1.82574900572e-06	0.00181282336444
67	2.56120621511e+37	0.0071591797246	0.00213151519506	1.74716536935e+35	0.00179767355924	0.00213151519506	1.11059989152e+33	1.87393202377e-06	0.00213151519506
68	2.52423645725e+37	0.00854940265392	0.00250623260704	1.6869330282e+35	0.00211352553392	0.00250623260704	9.43393944535e+32	1.9370426136e-06	0.00250623260704
69	2.36210860546e+37	0.0101463100431	0.00294682481981	1.55888809934e+35	0.00248484205368	0.00294682481981	7.7161278577e+32	2.01481021486e-06	0.00294682481981
70	2.09606194177e+37	0.011988318582	0.00346487253188	1.37369571589e+35	0.00292109657461	0.00346487253188	6.05058875723e+32	2.10718525144e-06	0.00346487253188
71	1.76017222773e+37	0.0141234456404	0.00407399231251	1.1497375902e+35	0.00343374443962	0.00407399231251	4.52787902691e+32	2.21438054462e-06	0.00407399231251
72	1.39477128579e+37	0.0166085864294	0.00479019450488	9.10062692673e+34	0.00403598213091	0.00479019450488	3.21789382832e+32	2.33671733677e-06	0.00479019450488
73	1.03907699457e+37	0.0195101795659	0.00563230404834	6.7808782312e+34	0.00474334489232	0.00563230404834	2.16056099829e+32	2.47461304737e-06	0.00563230404834
74	7.24550279593e+36	0.0229051729439	0.00662245528038	4.73209468383e+34	0.00557404408885	0.00662245528038	1.36288030281e+32	2.628519923e-06	0.00662245528038
75	4.70493842166e+36	0.0268825582729	0.00778667372434	3.07612523234e+34	0.00654942233396	0.00778667372434	8.02873248511e+31	2.79886237168e-06	0.00778667372434
76	2.82894917192e+36	0.0315454486962	0.00915556015438	1.8517089468e+34	0.00769448442697	0.00915556015438	4.38876985309e+31	2.98597393759e-06	0.00915556015438
77	1.56512385544e+36	0.0370137087649	0.0107650949183	1.02561294058e+34	0.00903851660061	0.0107650949183	2.21077024687e+31	3.1900323482e-06	0.0107650949183
78	7.91295924882e+35	0.0434270746969	0.0126575836592	5.19077307808e+33	0.0106158086117	0.0126575836592	1.0186386418e+31	3.41098957455e-06	0.0126575836592
79	3.62870124226e+35	0.0509477972904	0.0148827692932	2.38268946886e+33	0.0124664955655	0.0148827692932	4.2588879934e+30	3.64849332278e-06	0.0148827692932
