0-group 1-eemit(erg/ccm/s) 2-eabs(1/cm) 3-escat(1/cm) 4-aemit(erg/ccm/s) 5-aabs(1/cm) 6-ascat(1/cm) 7-hemit(erg/ccm/s) 8-habs(1/cm) 9-hscat(1/cm)
0	6.06852272412e+27	2.55615976498e-05	1.39844627905e-08	1.84427163279e+27	7.6124131356e-05	1.39844627905e-08	4.55658691977e+27	3.50562722201e-05	1.39844627905e-08
1	3.26863536141e+27	2.40609822693e-05	6.06557881957e-08	1.01323144012e+27	7.36019931121e-05	6.06557881957e-08	2.46148773642e+27	3.32106713144e-05	6.06557881957e-08
2	4.48172114279e+27	2.38685088576e-05	7.13189915485e-08	1.39197300867e+27	7.32980614567e-05	7.13189915485e-08	3.37359518256e+27	3.29633750539e-05	7.13189915485e-08
3	6.14248956029e+27	2.36683022686e-05	8.38567712465e-08	1.91144673286e+27	7.29767259217e-05	8.38567712465e-08	4.62110925665e+27	3.27030778382e-05	8.38567712465e-08
4	8.41513106542e+27	2.34603887169e-05	9.85986752084e-08	2.6235509533e+27	7.26371286268e-05	9.85986752084e-08	6.32618361734e+27	3.24292383501e-05	9.85986752084e-08
5	1.15236700636e+28	2.3244865417e-05	1.1593218542e-07	3.59913820415e+27	7.2278392967e-05	1.1593218542e-07	8.65491847166e+27	3.21413152718e-05	1.1593218542e-07
6	1.57736472614e+28	2.30219144211e-05	1.36312902661e-07	4.93485181572e+27	7.18996266727e-05	1.36312902661e-07	1.18329253631e+28	3.18387708154e-05	1.36312902661e-07
7	2.15816364605e+28	2.27918184423e-05	1.60276521698e-07	6.76238877106e+27	7.14999252823e-05	1.60276521698e-07	1.61662939861e+28	3.15210745624e-05	1.60276521698e-07
8	2.95154365858e+28	2.25549789711e-05	1.88452911691e-07	9.26103167351e+27	7.10783760673e-05	1.88452911691e-07	2.20697864062e+28	3.11877076293e-05	1.88452911691e-07
9	4.03488266584e+28	2.23119370473e-05	2.21582671926e-07	1.26745771815e+28	7.06340624558e-05	2.21582671926e-07	3.01046788767e+28	3.08381671771e-05	2.21582671926e-07
10	5.51362190171e+28	2.20633971143e-05	2.60536598015e-07	1.73341650346e+28	7.01660690065e-05	2.60536598015e-07	4.10294503547e+28	3.04719712832e-05	2.60536598015e-07
11	7.53145584107e+28	2.18102544576e-05	3.06338570228e-07	2.36890090598e+28	6.96734869895e-05	3.06338570228e-07	5.58675325155e+28	3.00886641982e-05	3.06338570228e-07
12	1.02842629504e+29	2.15536268159e-05	3.60192465567e-07	3.23476854133e+28	6.91554206314e-05	3.60192465567e-07	7.59976544074e+28	2.96878220021e-05	3.60192465567e-07
13	1.40391901576e+29	2.12948908533e-05	4.23513800937e-07	4.41334896083e+28	6.86109940855e-05	4.23513800937e-07	1.0327401734e+29	2.9269058678e-05	4.23513800937e-07
14	1.91608673354e+29	2.10357243044e-05	4.97966939153e-07	6.01584902769e+28	6.80393591865e-05	4.97966939153e-07	1.40185721674e+29	2.88320326096e-05	4.97966939153e-07
15	2.61475356757e+29	2.07781547428e-05	5.855088357e-07	8.19223560126e+28	6.74397040463e-05	5.855088357e-07	1.90067656631e+29	2.83764535058e-05	5.855088357e-07
16	3.56810426212e+29	2.05246160935e-05	6.8844047612e-07	1.11447312488e+29	6.68133094295e-05	6.8844047612e-07	2.57378598613e+29	2.79020897433e-05	6.8844047612e-07
17	4.86963648499e+29	2.02780142137e-05	8.0946735602e-07	1.51542153422e+29	6.6199864321e-05	8.0946735602e-07	3.48066706244e+29	2.74087761083e-05	8.0946735602e-07
18	6.64788452261e+29	2.00418031069e-05	9.51770593378e-07	2.05855175844e+29	6.55672627578e-05	9.51770593378e-07	4.70048134506e+29	2.68964219054e-05	9.51770593378e-07
19	9.08010977386e+29	1.98200736275e-05	1.1190905423e-06	2.79347601365e+29	6.49181990842e-05	1.1190905423e-06	6.33831312895e+29	2.63650193836e-05	1.1190905423e-06
20	1.24117215789e+30	1.9617656888e-05	1.31582510593e-06	3.78696676951e+29	6.42582987381e-05	1.31582510593e-06	8.53327741875e+29	2.58146524162e-05	1.31582510593e-06
21	1.69840567351e+30	1.94402450045e-05	1.54714533272e-06	5.12863988467e+29	6.35921679068e-05	1.54714533272e-06	1.14690013859e+30	2.52455053473e-05	1.54714533272e-06
22	2.3274474152e+30	1.92945323396e-05	1.81913133422e-06	6.9387480342e+29	6.29250629584e-05	1.81913133422e-06	1.53871053599e+30	2.46578719005e-05	1.81913133422e-06
23	3.19547770354e+30	1.91883810334e-05	2.13893209717e-06	9.37860631126e+29	6.22632731551e-05	2.13893209717e-06	2.06044453965e+30	2.40521640197e-05	2.13893209717e-06
24	4.39771802602e+30	1.91310153891e-05	2.51495339025e-06	1.26646118097e+30	6.16143736633e-05	2.51495339025e-06	2.75350323346e+30	2.34289204875e-05	2.51495339025e-06
25	6.07020685372e+30	1.91332506372e-05	2.9570787046e-06	1.70871644776e+30	6.09874723802e-05	2.9570787046e-06	3.67177079154e+30	2.27890010673e-05	2.9570787046e-06
26	8.40897194817e+30	1.92077627802e-05	3.47692903538e-06	2.30363160549e+30	6.0393481349e-05	3.47692903538e-06	4.88508289092e+30	2.21328616578e-05	3.47692903538e-06
27	1.16990722992e+31	1.93694076852e-05	4.08816833258e-06	3.10367281672e+30	5.98454263246e-05	4.08816833258e-06	6.48353714592e+30	2.14616433163e-05	4.08816833258e-06
28	1.63589788531e+31	1.96355994243e-05	4.80686264961e-06	4.17956228244e+30	5.93588042498e-05	4.80686264961e-06	8.58279983051e+30	2.07764670576e-05	4.80686264961e-06
29	2.30089451329e+31	2.00267601622e-05	5.65190242976e-06	5.62690299518e+30	5.89519980558e-05	5.65190242976e-06	1.13305699007e+31	2.00786132643e-05	5.65190242976e-06
30	3.25771029308e+31	2.05668567993e-05	6.64549903005e-06	7.57540331476e+30	5.86467590642e-05	6.64549903005e-06	1.49143572138e+31	1.9369524273e-05	6.64549903005e-06
31	4.64651557433e+31	2.12840432878e-05	7.81376853321e-06	1.02018266272e+31	5.84687687555e-05	7.81376853321e-06	1.95707106628e+31	1.86508049476e-05	7.81376853321e-06
32	6.68085840568e+31	2.22114322989e-05	9.18741819304e-06	1.3748317706e+31	5.84482936162e-05	9.18741819304e-06	2.55959855744e+31	1.79242209082e-05	9.18741819304e-06
33	9.68871955537e+31	2.33880260795e-05	1.08025535559e-05	1.85485357851e+31	5.8620949175e-05	1.08025535559e-05	3.33586579583e+31	1.71916940834e-05	1.08025535559e-05
34	1.41775425445e+32	2.48598443861e-05	1.27016274733e-05	2.50651701409e+31	5.9028592237e-05	1.27016274733e-05	4.33130637877e+31	1.64552952663e-05	1.27016274733e-05
35	2.09375681112e+32	2.66812979887e-05	1.49345559487e-05	3.39440887326e+31	5.97203638007e-05	1.49345559487e-05	5.60142505762e+31	1.57172333778e-05	1.49345559487e-05
36	3.12064516009e+32	2.89168703478e-05	1.75600301499e-05	4.60927951034e+31	6.0753909305e-05	1.75600301499e-05	7.21333616053e+31	1.49798411871e-05	1.75600301499e-05
37	4.69320175175e+32	3.16431890294e-05	2.06470590707e-05	6.27943363794e+31	6.2196807838e-05	2.06470590707e-05	9.24726170206e+31	1.42455572976e-05	2.06470590707e-05
38	7.11922498507e+32	3.4951594149e-05	2.42767833898e-05	8.5872689252e+31	6.41282478872e-05	2.42767833898e-05	1.17978501649e+32	1.35169042992e-05	2.42767833898e-05
39	1.08867238017e+33	3.8951346408e-05	2.85446082049e-05	1.17932401032e+32	6.66409943309e-05	2.85446082049e-05	1.49751216558e+32	1.27964630919e-05	2.85446082049e-05
40	1.6771475462e+33	4.37736661019e-05	3.35627106971e-05	1.62704375422e+32	6.98436998462e-05	3.35627106971e-05	1.89047814654e+32	1.20868435298e-05	3.35627106971e-05
41	2.60092028328e+33	4.95768627144e-05	3.94629886406e-05	2.25541633498e+32	7.38636240042e-05	3.94629886406e-05	2.37275757317e+32	1.13906516972e-05	3.94629886406e-05
42	4.05710923565e+33	5.65529109457e-05	4.64005272549e-05	3.14123929622e+32	7.8849835296e-05	4.64005272549e-05	2.95972968242e+32	1.07104543175e-05	4.64005272549e-05
43	6.36043152403e+33	6.49359659022e-05	5.45576755258e-05	4.39448076507e+32	8.49769854816e-05	5.45576755258e-05	3.66769932619e+32	1.00487410122e-05	5.45576755258e-05
44	1.00135434225e+34	7.50135063203e-05	6.41488391376e-05	6.17200633772e+32	9.24497623035e-05	6.41488391376e-05	4.51329153357e+32	9.40788535306e-06	6.41488391376e-05
45	1.58191418055e+34	8.71410775168e-05	7.54261159965e-05	8.6962854033e+32	0.000101508146078	7.54261159965e-05	5.51257541634e+32	8.79010588825e-06	7.54261159965e-05
46	2.50581466118e+34	0.00010176201537	8.86859224702e-05	1.22803607108e+33	0.00011243361834	8.86859224702e-05	6.67988340543e+32	8.19742855155e-06	8.86859224702e-05
47	3.97719072578e+34	0.000119434127127	0.000104276784513	1.73603417071e+33	0.000125556496873	0.000104276784513	8.02631233069e+32	7.63165207366e-06	0.000104276784513
48	6.32070316299e+34	0.000140866166651	0.000122608498456	2.45363671094e+33	0.000141264601526	0.000122608498456	9.55792618439e+32	7.09431817771e-06	0.000122608498456
49	1.00512079484e+35	0.000166968183759	0.000144162902261	3.4622174033e+33	0.000160013489437	0.000144162902261	1.12737280345e+33	6.58668844041e-06	0.000144162902261
50	1.59819371425e+35	0.000198921594573	0.000169506540328	4.87018472652e+33	0.000182338537168	0.000169506540328	1.31635299031e+33	6.10972970301e-06	0.000169506540328
51	2.53905224981e+35	0.000238277275127	0.000199305554782	6.81897005749e+33	0.000208869191063	0.000199305554782	1.52059205276e+33	5.6641097921e-06	0.000199305554782
52	4.02696959173e+35	0.000287093249478	0.000234343194606	9.48852799844e+33	0.000240345756589	0.000234343194606	1.73666030085e+33	5.25020502162e-06	0.000234343194606
53	6.3697299015e+35	0.000348127564212	0.000275540402865	1.31010033551e+34	0.000277639153139	0.000275540402865	1.95974327324e+33	4.86812044909e-06	0.000275540402865
54	1.00364536736e+36	0.000425106116359	0.00032398002314	1.79205455092e+34	0.000321774123966	0.00032398002314	2.18365099148e+33	4.51772309624e-06	0.00032398002314
55	1.57293061408e+36	0.000523087686523	0.000380935261408	2.42465282002e+34	0.000373956463163	0.000380935261408	2.40096455862e+33	4.19868724509e-06	0.000380935261408
56	2.44731593894e+36	0.000648944857952	0.000447903151489	3.23968342166e+34	0.000435604905338	0.000447903151489	2.6033400368e+33	3.91054940393e-06	0.000447903151489
57	3.77118046032e+36	0.000811961182423	0.00052664390367	4.26776834448e+34	0.000508388422297	0.00052664390367	2.78196772545e+33	3.65276853053e-06	0.00052664390367
58	5.73776822487e+36	0.00102449757603	0.000619227170765	5.53371355177e+34	0.000594269789813	0.000619227170765	2.92815423517e+33	3.42478462269e-06	0.000619227170765
59	8.58657470251e+36	0.00130258766115	0.000728086447677	7.05013756162e+34	0.000695556434421	0.000728086447677	3.03396031244e+33	3.22606612694e-06	0.000728086447677
60	1.25796480166e+37	0.00166617946114	0.000856083034334	8.80966252503e+34	0.000814959757105	0.000856083034334	3.09280024787e+33	3.05613465509e-06	0.000856083034334
61	1.79428115063e+37	0.00213827544269	0.00100658124322	1.07765140358e+35	0.000955664375667	0.00100658124322	3.09990535311e+33	2.91455605206e-06	0.00100658124322
62	2.47641200069e+37	0.00274440619223	0.00118353682828	1.28790762712e+35	0.00112140905175	0.00118353682828	3.05259077549e+33	2.80089260483e-06	0.00118353682828
63	3.28647650746e+37	0.00350806332834	0.00139160095952	1.50056393443e+35	0.00131658148757	0.00139160095952	2.9503443875e+33	2.71462419518e-06	0.00139160095952
64	4.16947455936e+37	0.00444852896217	0.00163624247617	1.70059928131e+35	0.00154632968002	0.00163624247617	2.79484884343e+33	2.65506449563e-06	0.00163624247617
65	5.03306387235e+37	0.00557895169225	0.00192389163179	1.87013142803e+35	0.00181669305005	0.00192389163179	2.59008645234e+33	2.62131246991e-06	0.00192389163179
66	5.76260614941e+37	0.00690789956835	0.0022621091096	1.99036425912e+35	0.00213475704408	0.0022621091096	2.3425954277e+33	2.61227542183e-06	0.0022621091096
67	6.24825528146e+37	0.00844425387211	0.00265978475046	2.04439760834e+35	0.00250883530531	0.00265978475046	2.06175524449e+33	2.62658302447e-06	0.00265978475046
68	6.41311228613e+37	0.0102034950294	0.00312737121685	2.02049727927e+35	0.00294868393482	0.00312737121685	1.75979932451e+33	2.66356823173e-06	0.00312737121685
69	6.23121107771e+37	0.0122127924272	0.00367715873486	1.91511750175e+35	0.00346575297629	0.00367715873486	1.45123654488e+33	2.72208466037e-06	0.00367715873486
70	5.73070819389e+37	0.0145130011155	0.00432359813524	1.73479253024e+35	0.00407330776216	0.00432359813524	1.15155449641e+33	2.80142511264e-06	0.00432359813524
71	4.9844728766e+37	0.0171599058395	0.00508368068471	1.49610306068e+35	0.00478715291393	0.00508368068471	8.75376921072e+32	2.9013997777e-06	0.00508368068471
72	4.09301704263e+37	0.020223186128	0.00597738469112	1.22334625455e+35	0.00562575310536	0.00597738469112	6.34499821341e+32	3.02207252978e-06	0.00597738469112
73	3.16438757381e+37	0.0237855772272	0.00702820062107	9.44227836904e+34	0.00661074165619	0.00702820062107	4.36326996321e+32	3.16372819245e-06	0.00702820062107
74	2.29488517882e+37	0.0279432957711	0.00826374853259	6.8462138608e+34	0.00776748015899	0.00826374853259	2.83136836202e+32	3.32679584888e-06	0.00826374853259
75	1.55417551525e+37	0.0328072869796	0.00971650405158	4.63879331508e+34	0.00912569319362	0.00971650405158	1.72372808128e+32	3.51175245675e-06	0.00971650405158
76	9.77760408281e+36	0.0385054283914	0.0114246519739	2.92071264395e+34	0.0107202090578	0.0114246519739	9.78414331788e+31	3.71902889925e-06	0.0114246519739
77	5.68066130799e+36	0.045189963757	0.0134330899294	1.69843403314e+34	0.0125918239536	0.0134330899294	5.1433523867e+31	3.94891936677e-06	0.0134330899294
78	3.02812414848e+36	0.053028959334	0.015794608489	9.06177768132e+33	0.0147883098991	0.015794608489	2.48602751003e+31	4.20149087174e-06	0.015794608489
79	1.47051466117e+36	0.0622287062845	0.0185712787328	4.40429221269e+33	0.0173670502533	0.0185712787328	1.09630435569e+31	4.47648768936e-06	0.0185712787328
