0-group 1-eemit(erg/ccm/s) 2-eabs(1/cm) 3-escat(1/cm) 4-aemit(erg/ccm/s) 5-aabs(1/cm) 6-ascat(1/cm) 7-hemit(erg/ccm/s) 8-habs(1/cm) 9-hscat(1/cm)
0	2.49801214215e+22	3.04086137982e-10	3.72963018557e-12	7.68933761403e+20	4.74225865053e-12	3.72963018557e-12	1.23307202214e+20	7.97878341038e-13	3.72963018557e-12
1	1.69726565012e+22	3.75196322181e-10	1.61767857639e-11	8.62994817724e+20	9.4892896108e-12	1.61767857639e-11	1.45061033175e+20	1.65790058171e-12	1.61767857639e-11
2	2.4490406862e+22	3.96648440123e-10	1.9020642242e-11	1.27607987214e+21	1.02218526051e-11	1.9020642242e-11	2.15621682944e+20	1.79328802471e-12	1.9020642242e-11
3	3.54048155164e+22	4.20638347357e-10	2.23644447407e-11	1.88384973578e+21	1.10011837233e-11	2.23644447407e-11	3.19975243343e+20	1.93788578308e-12	2.23644447407e-11
4	5.12791243009e+22	4.47519152123e-10	2.62960830762e-11	2.77632812894e+21	1.18291338812e-11	2.62960830762e-11	4.74004331214e+20	2.09210808553e-12	2.62960830762e-11
5	7.44073568394e+22	4.77701061605e-10	3.09188979726e-11	4.08416205122e+21	1.27074486873e-11	3.09188979726e-11	7.00882852441e+20	2.25635872042e-12	3.09188979726e-11
6	1.0815976859e+23	5.11661737151e-10	3.63543973097e-11	5.99636433967e+21	1.36377397604e-11	3.63543973097e-11	1.03432238031e+21	2.43102612493e-12	3.63543973097e-11
7	1.57492329785e+23	5.4995867389e-10	4.27454498839e-11	8.78546122982e+21	1.46214576899e-11	4.27454498839e-11	1.52320493645e+21	2.61647829173e-12	4.27454498839e-11
8	2.2969771533e+23	5.9324401002e-10	5.02600406275e-11	1.28429328607e+22	1.56598662028e-11	5.02600406275e-11	2.23815960282e+21	2.81305771382e-12	5.02600406275e-11
9	3.35511129881e+23	6.4228225299e-10	5.90956859909e-11	1.87288459487e+22	1.67540211071e-11	5.90956859909e-11	3.28084408898e+21	3.02107666076e-12	5.90956859909e-11
10	4.90736000625e+23	6.97971500642e-10	6.94846255421e-11	2.72408773888e+22	1.79047585202e-11	6.94846255421e-11	4.79695842744e+21	3.24081321273e-12	6.94846255421e-11
11	7.18628477608e+23	7.61368833939e-10	8.16999262429e-11	3.95095473299e+22	1.91126938569e-11	8.16999262429e-11	6.99435837172e+21	3.47250870114e-12	8.16999262429e-11
12	1.05338406359e+24	8.3372064937e-10	9.60626598476e-11	5.71283291603e+22	2.03782125726e-11	9.60626598476e-11	1.01680570603e+22	3.7163667756e-12	9.60626598476e-11
13	1.5452156162e+24	9.16498900206e-10	1.12950342079e-10	8.23298011895e+22	2.17015171293e-11	1.12950342079e-10	1.47344107011e+22	3.97255535909e-12	1.12950342079e-10
14	2.26771117103e+24	1.01144422493e-09	1.32806855402e-10	1.18221185518e+23	2.30826833829e-11	1.32806855402e-10	2.12773593996e+22	4.24121253929e-12	1.32806855402e-10
15	3.32842684339e+24	1.12061711639e-09	1.56154116198e-10	1.69095031802e+23	2.45217467956e-11	1.56154116198e-10	3.06101957234e+22	4.52245742988e-12	1.56154116198e-10
16	4.88401562654e+24	1.24645836164e-09	1.83605793027e-10	2.48015911235e+23	2.68051051408e-11	1.83605793027e-10	4.38568760929e+22	4.81640738962e-12	1.83605793027e-10
17	7.161621034e+24	1.3918600107e-09	2.15883436531e-10	5.5907769808e+23	4.54051089963e-11	2.15883436531e-10	6.25572169618e+22	5.12320318849e-12	2.15883436531e-10
18	1.04887604021e+25	1.56024808135e-09	2.5383544495e-10	1.10736128364e+24	6.77106124947e-11	2.5383544495e-10	8.88001684317e+22	5.44304367924e-12	2.5383544495e-10
19	1.53344371234e+25	1.75567809027e-09	2.98459363757e-10	2.04797113413e+24	9.46356450371e-11	2.98459363757e-10	1.25388343573e+23	5.77623166712e-12	2.98459363757e-10
20	2.23646383582e+25	1.98294416272e-09	3.50928105537e-10	3.65062856445e+24	1.28097100232e-10	3.50928105537e-10	1.760345305e+23	6.12323243265e-12	3.50928105537e-10
21	3.25154851628e+25	2.2477020584e-09	4.12620779277e-10	6.32338925133e+24	1.69431046384e-10	4.12620779277e-10	2.45586275309e+23	6.48474606386e-12	4.12620779277e-10
22	4.70867468838e+25	2.55660583638e-09	4.85158939409e-10	1.06844998951e+25	2.20019456846e-10	4.85158939409e-10	3.40266873257e+23	6.86179413471e-12	4.85158939409e-10
23	6.78566734893e+25	2.91745721226e-09	5.70449207382e-10	1.7651645909e+25	2.81408894345e-10	5.70449207382e-10	4.67909258465e+23	7.25582029358e-12	5.70449207382e-10
24	9.72154076223e+25	3.33936608219e-09	6.70733386053e-10	2.85551607218e+25	3.55377729411e-10	6.70733386053e-10	6.38142548972e+23	7.66880299172e-12	6.70733386053e-10
25	1.3830776309e+26	3.83292051984e-09	7.88647384103e-10	4.52744949876e+25	4.44001746915e-10	7.88647384103e-10	8.62469225691e+23	8.10337674566e-12	7.88647384103e-10
26	1.95166125111e+26	4.4103651936e-09	9.27290499303e-10	7.03906249295e+25	5.49731413276e-10	9.27290499303e-10	1.15414533033e+24	8.56295611017e-12	9.27290499303e-10
27	2.72800378173e+26	5.08578919714e-09	1.09030688167e-09	1.07337023061e+26	6.75486998632e-10	1.09030688167e-09	1.52775023894e+24	9.05185398595e-12	1.09030688167e-09
28	3.77194976255e+26	5.87532822467e-09	1.28198131773e-09	1.60517716439e+26	8.24775576649e-10	1.28198131773e-09	1.99831361027e+24	9.57538334065e-12	1.28198131773e-09
29	5.15146361915e+26	6.79739215245e-09	1.50735185354e-09	2.3534345637e+26	1.00183269964e-09	1.50735185354e-09	2.57986633744e+24	1.01399291407e-11	1.50735185354e-09
30	6.93862329737e+26	7.87201183261e-09	1.77234221665e-09	3.38118593373e+26	1.21179039491e-09	1.77234221665e-09	3.28331537077e+24	1.07529761993e-11	1.77234221665e-09
31	9.20246739948e+26	9.12468992665e-09	2.08391751769e-09	4.75697008524e+26	1.4608719909e-09	2.08391751769e-09	4.11362647879e+24	1.14230793146e-11	2.08391751769e-09
32	1.19981780937e+27	1.05818556241e-08	2.45026732407e-09	6.54823425881e+26	1.75661327828e-09	2.45026732407e-09	5.06644823359e+24	1.21597653994e-11	2.45026732407e-09
33	1.53526462794e+27	1.22746466729e-08	2.8810209178e-09	8.81097246683e+26	2.10810905271e-09	2.8810209178e-09	6.12452650177e+24	1.29733639727e-11	2.8810209178e-09
34	1.92473789152e+27	1.42389429362e-08	3.38750039526e-09	1.15755063083e+27	2.52628447727e-09	3.38750039526e-09	7.25451924629e+24	1.38747720843e-11	3.38750039526e-09
35	2.36009104741e+27	1.65163840225e-08	3.98301826168e-09	1.48292836269e+27	3.02419231781e-09	3.98301826168e-09	8.40507206475e+24	1.48751716966e-11	3.98301826168e-09
36	2.82541794207e+27	1.91556340448e-08	4.68322734223e-09	1.84989167021e+27	3.61734002786e-09	4.68322734223e-09	9.50716542847e+24	1.59857293306e-11	4.68322734223e-09
37	3.29633977376e+27	2.2213904399e-08	5.506532207e-09	2.24352274119e+27	4.32405481953e-09	5.506532207e-09	1.04776835528e+25	1.72173165416e-11	5.506532207e-09
38	3.74053314532e+27	2.57587362565e-08	6.47457292395e-09	2.6406400526e+27	5.16589981973e-09	6.47457292395e-09	1.12267795916e+25	1.85802923145e-11	6.47457292395e-09
39	4.11991340168e+27	2.9870042053e-08	7.61279385496e-09	3.01048430507e+27	6.16815959017e-09	7.61279385496e-09	1.16688776307e+25	2.00843825975e-11	7.61279385496e-09
40	4.39465256765e+27	3.46424116373e-08	8.95111244537e-09	3.31722810989e+27	7.36041795107e-09	8.95111244537e-09	1.17361259739e+25	2.17386777449e-11	8.95111244537e-09
41	4.52880744736e+27	4.01877038414e-08	1.05247055859e-08	3.52444357423e+27	8.77725455433e-09	1.05247055859e-08	1.13920131559e+25	2.35517476514e-11	1.05247055859e-08
42	4.49680463602e+27	4.66379662246e-08	1.23749342159e-08	3.60113057226e+27	1.04584835286e-08	1.23749342159e-08	1.06420336242e+25	2.55318510476e-11	1.23749342159e-08
43	4.28949746325e+27	5.41487520005e-08	1.45504304702e-08	3.52826092054e+27	1.24528998098e-08	1.45504304702e-08	9.53815944726e+24	2.76865606327e-11	1.45504304702e-08
44	3.91817506605e+27	6.29016579275e-08	1.71083759456e-08	3.30423797334e+27	1.48149458205e-08	1.71083759456e-08	8.17475764694e+24	3.00261867071e-11	1.71083759456e-08
45	3.41499539481e+27	7.3109697321e-08	2.01160046843e-08	2.94748794723e+27	1.76092303144e-08	2.01160046843e-08	6.67551974276e+24	3.25576198067e-11	2.01160046843e-08
46	2.82898694811e+27	8.50248272272e-08	2.36523703796e-08	2.49483111756e+27	2.09122051826e-08	2.36523703796e-08	5.17353234518e+24	3.52907389843e-11	2.36523703796e-08
47	2.21796732593e+27	9.89405091317e-08	2.78104242544e-08	1.99537494284e+27	2.48132821621e-08	2.78104242544e-08	3.7889839769e+24	3.82351491201e-11	2.78104242544e-08
48	1.63812090152e+27	1.15200030415e-07	3.26994582275e-08	1.50115455208e+27	2.94174643655e-08	3.26994582275e-08	2.61017683677e+24	4.14005470873e-11	3.26994582275e-08
49	1.13399578382e+27	1.34204884408e-07	3.84479775853e-08	1.05704504348e+27	3.48480534644e-08	3.84479775853e-08	1.6827877814e+24	4.47962724129e-11	3.84479775853e-08
50	7.31768536635e+26	1.56424625173e-07	4.52070786653e-08	6.92935194527e+26	4.12497907354e-08	4.52070786653e-08	1.00974065882e+24	4.84306804696e-11	4.52070786653e-08
51	4.37579157291e+26	1.8240842083e-07	5.3154420331e-08	4.20423825195e+26	4.87925058626e-08	5.3154420331e-08	5.60548073248e+23	5.23103418072e-11	5.3154420331e-08
52	2.40919228574e+26	2.12798559247e-07	6.24988936279e-08	2.34599945158e+26	5.7675362535e-08	6.24988936279e-08	2.86032774313e+23	5.64390640489e-11	6.24988936279e-08
53	1.21283347397e+26	2.48346202075e-07	7.34861123568e-08	1.19573261429e+26	6.81318052588e-08	7.34861123568e-08	1.33215229652e+23	6.08167224243e-11	7.34861123568e-08
54	5.54092831601e+25	2.8992973771e-07	8.64048688841e-08	5.52556821463e+25	8.04353277747e-08	8.64048688841e-08	5.61953637024e+22	6.54378764523e-11	8.64048688841e-08
55	2.2786970052e+25	3.38576149984e-07	1.01594724873e-07	2.29646311731e+25	9.49062011221e-08	1.01594724873e-07	2.12934343248e+22	7.02901481354e-11	1.01594724873e-07
56	8.36175149583e+24	3.95485896375e-07	1.19454936456e-07	8.50932581098e+24	1.11919320187e-07	1.19454936456e-07	7.18245609837e+21	7.53523447845e-11	1.19454936456e-07
57	2.71198992059e+24	4.62061877612e-07	1.40454948439e-07	2.78474108799e+24	1.31913352905e-07	1.40454948439e-07	2.13566733233e+21	8.05923297207e-11	1.40454948439e-07
58	7.69479000897e+23	5.39943181875e-07	1.65146733372e-07	7.96693890028e+23	1.55401407245e-07	1.65146733372e-07	5.53884375809e+20	8.59646785656e-11	1.65146733372e-07
59	1.88885121048e+23	6.31044404605e-07	1.94179299816e-07	1.97066525688e+23	1.82983468495e-07	1.94179299816e-07	1.23860025466e+20	9.14082096444e-11	1.94179299816e-07
60	3.963436917e+22	7.37601482811e-07	2.28315751134e-07	4.16439041365e+22	2.15360903773e-07	2.28315751134e-07	2.35857046663e+19	9.68435459471e-11	2.28315751134e-07
61	7.01736435041e+21	8.62225143512e-07	2.68453343199e-07	7.42133037389e+21	2.53353382523e-07	2.68453343199e-07	3.77305600186e+18	1.02170953504e-10	2.68453343199e-07
62	1.03370433851e+21	1.00796325069e-06	3.15647068224e-07	1.09980217053e+21	2.97918621176e-07	3.15647068224e-07	4.99676434233e+17	1.07268803756e-10	3.15647068224e-07
63	1.24775542739e+20	1.1783735421e-06	3.71137384587e-07	1.33492661499e+20	3.50175426563e-07	3.71137384587e-07	5.39165250048e+16	1.1199311612e-10	3.71137384587e-07
64	1.21400026416e+19	1.37760847172e-06	4.36382821526e-07	1.30548304388e+19	4.11430584465e-07	4.36382821526e-07	4.6590230717e+15	1.1617873301e-10	4.36382821526e-07
65	9.35226145349e+17	1.61051410572e-06	5.13098315694e-07	1.01046875352e+18	4.83210213997e-07	5.13098315694e-07	3.16429876522e+14	1.19642733839e-10	5.13098315694e-07
66	5.59538239675e+16	1.88274524771e-06	6.03300287229e-07	6.07200858056e+16	5.67296281112e-07	6.03300287229e-07	1.65521084361e+13	1.22190667495e-10	6.03300287229e-07
67	2.54601768154e+15	2.20089917634e-06	7.09359640127e-07	2.77405573217e+15	6.65769030636e-07	7.09359640127e-07	652321928282.0	1.23626030083e-10	7.09359640127e-07
68	8.61286882445e+13	2.572670555e-06	8.34064080017e-07	9.41930455962e+13	7.81056151767e-07	8.34064080017e-07	18911951840.0	1.23763098021e-10	8.34064080017e-07
69	2.11343515104e+12	3.00703021311e-06	9.80691387304e-07	2.3192823164e+12	9.15989535567e-07	9.80691387304e-07	393038106.856	1.22442731001e-10	9.80691387304e-07
70	36624586356.5	3.51443061389e-06	1.15309557164e-06	40319679811.4	1.07387051789e-06	1.15309557164e-06	5693333.99184	1.19550113333e-10	1.15309557164e-06
71	435405236.571	4.10704094007e-06	1.35580817223e-06	480742345.092	1.25854453618e-06	1.35580817223e-06	55758.8374887	1.15032692704e-10	1.35580817223e-06
72	3440839.24033	4.7990148875e-06	1.59415736656e-06	3809432.37483	1.47448617647e-06	1.59415736656e-06	357.225143383	1.08915948649e-10	1.59415736656e-06
73	17467.1231295	5.60679449159e-06	1.87440801834e-06	19386.7313808	1.72689565996e-06	1.87440801834e-06	1.44447034373	1.01314262542e-10	1.87440801834e-06
74	54.8812058745	6.54945363524e-06	2.20392634561e-06	61.0535830249	2.02180792043e-06	2.20392634561e-06	0.00354616912665	9.24342422311e-11	2.20392634561e-06
75	0.10250485664	7.64908526259e-06	2.59137353733e-06	0.114277175807	2.36621554453e-06	2.59137353733e-06	5.06779128914e-06	8.25684882016e-11	2.59137353733e-06
76	0.000108931956792	8.93123665702e-06	3.04693340744e-06	0.000121682168054	2.76820695638e-06	3.04693340744e-06	4.02887544705e-09	7.20789704738e-11	3.04693340744e-06
77	6.28075050134e-08	1.04253972943e-05	3.58258007023e-06	7.02866834933e-08	3.23712128146e-06	3.58258007023e-06	3.1690888236e-12	6.13707757892e-11	3.58258007023e-06
78	2.06968088445e-11	1.21655435941e-05	4.21239267268e-06	2.29538232059e-11	3.78372127188e-06	4.21239267268e-06	2.03909121467e-12	5.08587197908e-11	4.21239267268e-06
79	2.82125450152e-12	1.41907442245e-05	4.95292545622e-06	2.8215858654e-12	4.42038546931e-06	4.95292545622e-06	2.81855412769e-12	4.09308576052e-11	4.95292545622e-06
