0-group 1-eemit(erg/ccm/s) 2-eabs(1/cm) 3-escat(1/cm) 4-aemit(erg/ccm/s) 5-aabs(1/cm) 6-ascat(1/cm) 7-hemit(erg/ccm/s) 8-habs(1/cm) 9-hscat(1/cm)
0	3.57882130464e+28	0.00013632611751	4.74634654376e-08	2.71248207019e+24	0.0148707603722	4.74634654376e-08	2.79598139764e+28	0.000217478125386	4.74634654376e-08
1	1.86359914476e+28	0.000123963997302	2.05866607087e-07	1.50052884013e+24	0.0146164016471	2.05866607087e-07	1.47620349958e+28	0.000202232231004	2.05866607087e-07
2	2.54104022923e+28	0.000122261220167	2.42057670797e-07	2.06292939918e+24	0.0146059912349	2.42057670797e-07	2.01641120844e+28	0.00020031181611	2.42057670797e-07
3	3.46190255871e+28	0.000120483101966	2.8461107326e-07	2.83479961192e+24	0.0145947963497	2.8461107326e-07	2.75219844417e+28	0.000198301180659	2.8461107326e-07
4	4.71238532921e+28	0.00011862772773	3.34645304797e-07	3.89351207327e+24	0.0145827592119	3.34645304797e-07	3.75341610503e+28	0.000196197570899	3.34645304797e-07
5	6.4086500263e+28	0.000116693344747	3.93475484773e-07	5.34470369278e+24	0.0145698181083	3.93475484773e-07	5.11442999432e+28	0.000193998372897	3.93475484773e-07
6	8.7069883196e+28	0.000114678396178	4.62647928712e-07	7.33244748755e+24	0.0145559071741	4.62647928712e-07	6.96253119029e+28	0.000191701149082	4.62647928712e-07
7	1.18173332373e+29	0.000112581556179	5.43980792258e-07	1.00530108182e+25	0.01454095617	5.43980792258e-07	9.46914600764e+28	0.00018930367684	5.43980792258e-07
8	1.60211667427e+29	0.000110401766431	6.39611860297e-07	1.37734288144e+25	0.0145248902534	6.39611860297e-07	1.28647397345e+29	0.000186803989113	6.39611860297e-07
9	2.16951888482e+29	0.000108138273998	7.52054737327e-07	1.88565255108e+25	0.0145076297481	7.52054737327e-07	1.74585774406e+29	0.000184200416932	7.52054737327e-07
10	2.93424975978e+29	0.000105790627587	8.84264916028e-07	2.57934033991e+25	0.0144884481709	8.84264916028e-07	2.36648361948e+29	0.000181491542745	8.84264916028e-07
11	3.96331610988e+29	0.000103357726041	1.03971746059e-06	3.52501196346e+25	0.0144674925896	1.03971746059e-06	3.20366565707e+29	0.000178674274379	1.03971746059e-06
12	5.34577187533e+29	0.000100839056362	1.22249834666e-06	4.81249390091e+25	0.0144441589567	1.22249834666e-06	4.33111903188e+29	0.000175746091796	1.22249834666e-06
13	7.19986246519e+29	9.82373570484e-05	1.43741185874e-06	6.56335319075e+25	0.0144190997457	1.43741185874e-06	5.84702174978e+29	0.000172710812401	1.43741185874e-06
14	9.68193859268e+29	9.55540088007e-05	1.69010686786e-06	8.94107348555e+25	0.0143921952701	1.69010686786e-06	7.88155388003e+29	0.000169568939082	1.69010686786e-06
15	1.29982504e+30	9.27909468089e-05	1.98722530876e-06	1.21652508442e+26	0.014363318827	1.98722530876e-06	1.0606936738e+30	0.000166321563049	1.98722530876e-06
16	1.74200635997e+30	8.99507032365e-05	2.33657675906e-06	1.65301157478e+26	0.0143323385157	2.33657675906e-06	1.42503297836e+30	0.000162970415666	2.33657675906e-06
17	2.33030204486e+30	8.70364488607e-05	2.7473437093e-06	2.24288790988e+26	0.0142991532318	2.7473437093e-06	1.91103950458e+30	0.00015951792	2.7473437093e-06
18	3.11118012366e+30	8.4052033205e-05	3.2303229191e-06	3.03852928589e+26	0.0142635828242	3.2303229191e-06	2.55784501071e+30	0.000155967241351	3.2303229191e-06
19	4.14513493617e+30	8.1002022386e-05	3.79820920343e-06	4.10948674155e+26	0.0142254739867	3.79820920343e-06	3.41653101728e+30	0.000152322335881	3.79820920343e-06
20	5.5106148597e+30	7.78917337749e-05	4.46592910812e-06	5.54778534737e+26	0.0141846686001	4.46592910812e-06	4.55351112075e+30	0.000148587996287	4.46592910812e-06
21	7.30892761406e+30	7.47272664534e-05	5.25103324502e-06	7.47470791275e+26	0.0141409997827	5.25103324502e-06	6.05475981245e+30	0.000144769893327	5.25103324502e-06
22	9.67022603845e+30	7.15148422894e-05	6.17415759918e-06	1.00494036354e+27	0.0140942851238	6.17415759918e-06	8.03097024302e+30	0.000140873150306	6.17415759918e-06
23	1.27607541673e+31	6.82605883567e-05	7.25956593317e-06	1.3479712354e+27	0.0140443230939	7.25956593317e-06	1.06237868113e+31	0.000136901745519	7.25956593317e-06
24	1.67927163364e+31	6.49753703934e-05	8.53578754534e-06	1.80357140804e+27	0.0139909552862	8.53578754534e-06	1.4014313889e+31	0.000132868980466	8.53578754534e-06
25	2.20344531683e+31	6.16686182088e-05	1.00363671451e-05	2.4066278442e+27	0.0139339904738	1.00363671451e-05	1.84317708211e+31	0.000128784339032	1.00363671451e-05
26	2.88236646127e+31	5.83505919646e-05	1.18007465551e-05	3.20192120501e+27	0.0138732332332	1.18007465551e-05	2.41646887242e+31	0.000124658279686	1.18007465551e-05
27	3.75826965375e+31	5.50323603217e-05	1.38753014159e-05	4.24652652588e+27	0.0138084850638	1.38753014159e-05	3.15736412886e+31	0.000120502219073	1.38753014159e-05
28	4.88336210014e+31	5.17229474692e-05	1.63145601409e-05	5.61260251287e+27	0.0137395096662	1.63145601409e-05	4.11033051439e+31	0.000116321841779	1.63145601409e-05
29	6.32237145412e+31	4.84371389262e-05	1.91826371632e-05	7.39061527682e+27	0.0136661317236	1.91826371632e-05	5.3302891983e+31	0.000112135205905	1.91826371632e-05
30	8.15454311144e+31	4.51889497359e-05	2.25549181441e-05	9.69284030186e+27	0.0135881622984	2.25549181441e-05	6.88403309582e+31	0.000107958114637	2.25549181441e-05
31	1.04749384492e+32	4.1987328054e-05	2.65200414395e-05	1.265467605e+28	0.0135028562465	2.65200414395e-05	8.85069409663e+31	0.000103791496586	2.65200414395e-05
32	1.33986650376e+32	3.88474428909e-05	3.11822279053e-05	1.64422739653e+28	0.0134111716919	3.11822279053e-05	1.13247119424e+32	9.96523467012e-05	3.11822279053e-05
33	1.70651385178e+32	3.57886138718e-05	3.6664020279e-05	2.12546313525e+28	0.0133140770785	3.6664020279e-05	1.44179418199e+32	9.55684105996e-05	3.6664020279e-05
34	2.16377540673e+32	3.28232363568e-05	4.31095041412e-05	2.73240235273e+28	0.0132113639089	4.31095041412e-05	1.82567793731e+32	9.15486271381e-05	4.31095041412e-05
35	2.73122550902e+32	2.99682198813e-05	5.06880951178e-05	3.49073297146e+28	0.0130991317919	5.06880951178e-05	2.29851905349e+32	8.76095181094e-05	5.06880951178e-05
36	3.43182332247e+32	2.72372014856e-05	5.95989918663e-05	4.43034915845e+28	0.0129796970779	5.95989918663e-05	2.87593739335e+32	8.37707285947e-05	5.95989918663e-05
37	4.2932426123e+32	2.46466092504e-05	7.00764118917e-05	5.58358434496e+28	0.0128539151992	7.00764118917e-05	3.57479655638e+32	8.00484764574e-05	7.00764118917e-05
38	5.34710894998e+32	2.22036811053e-05	8.23957478111e-05	6.9813770273e+28	0.0127171474862	8.23957478111e-05	4.41055922908e+32	7.64283793575e-05	8.23957478111e-05
39	6.63511583155e+32	1.99291452726e-05	9.68808058815e-05	8.65730794424e+28	0.0125731324698	9.68808058815e-05	5.40013552403e+32	7.29484546389e-05	9.68808058815e-05
40	8.21038271936e+32	1.7837656738e-05	0.00011391231705	1.06406612436e+29	0.0124223483893	0.00011391231705	6.55799087293e+32	6.96266779199e-05	0.00011391231705
41	1.01443277818e+33	1.59416010433e-05	0.000133937944237	1.29535912997e+29	0.0122648486932	0.000133937944237	7.89460497514e+32	6.64745486766e-05	0.000133937944237
42	1.25331488062e+33	1.42463350423e-05	0.00015748404888	1.559647519e+29	0.0120926936353	0.00015748404888	9.40906544293e+32	6.34650114542e-05	0.00015748404888
43	1.55307480733e+33	1.27693758557e-05	0.000185169526028	1.85625113001e+29	0.0119096227329	0.000185169526028	1.1099546743e+33	6.06383009568e-05	0.000185169526028
44	1.93741793407e+33	1.15221892401e-05	0.000217722071623	2.18259179071e+29	0.011719818449	0.000217722071623	1.29523015529e+33	5.80114094731e-05	0.000217722071623
45	2.44238834414e+33	1.05065679422e-05	0.000255997309538	2.5317251792e+29	0.0115183224561	0.000255997309538	1.4922948248e+33	5.55298626997e-05	0.000255997309538
46	3.13018574823e+33	9.73981771854e-06	0.000301001281138	2.89487803611e+29	0.011308707984	0.000301001281138	1.69783219258e+33	5.32588535035e-05	0.000301001281138
47	4.0982024899e+33	9.22377777107e-06	0.000353916888465	3.25710573419e+29	0.0110840301421	0.000353916888465	1.90323532571e+33	5.11328670459e-05	0.000353916888465
48	5.51116771606e+33	8.97209637577e-06	0.000416134986094	3.60406226092e+29	0.010852803091	0.000416134986094	2.10153904848e+33	4.91963832499e-05	0.000416134986094
49	7.6347322718e+33	8.99040507509e-06	0.000489290938905	3.91520059501e+29	0.0106110986448	0.000489290938905	2.28046886569e+33	4.73917625561e-05	0.000489290938905
50	1.09071206426e+34	9.29032879994e-06	0.000575307606653	4.16901267555e+29	0.0103583096949	0.000575307606653	2.42813472298e+33	4.57060196961e-05	0.000575307606653
51	1.60451466029e+34	9.88554746846e-06	0.00067644588517	4.34631817784e+29	0.0100993323289	0.00067644588517	2.53231741182e+33	4.41217350865e-05	0.00067644588517
52	2.42169035912e+34	1.0792263432e-05	0.000795364132634	4.42691784598e+29	0.00983071305672	0.000795364132634	2.58026109448e+33	4.25941927984e-05	0.000795364132634
53	3.73249552851e+34	1.20318210612e-05	0.000935188042901	4.39895904704e+29	0.00955720455087	0.000935188042901	2.56165170294e+33	4.10794227503e-05	0.000935188042901
54	5.84622179765e+34	1.36316199313e-05	0.00109959280247	4.25619105027e+29	0.0092798442839	0.00109959280247	2.47021002831e+33	3.9529042619e-05	0.00109959280247
55	9.26501688105e+34	1.56264988048e-05	0.00129289969051	4.00124131736e+29	0.00899957103905	0.00129289969051	2.30539838821e+33	3.78897268851e-05	0.00129289969051
56	1.48035210743e+35	1.80604700959e-05	0.0015201896611	3.64787076215e+29	0.00872062954333	0.0015201896611	2.07445141221e+33	3.61169530177e-05	0.0015201896611
57	2.37828039821e+35	2.09886575408e-05	0.00178743689295	3.21820726071e+29	0.00844628047552	0.00178743689295	1.79393525446e+33	3.42052318955e-05	0.00178743689295
58	3.83443541754e+35	2.44791654842e-05	0.00210166581713	2.74101092484e+29	0.00817985523152	0.00210166581713	1.48655774457e+33	3.21729733502e-05	0.00210166581713
59	6.19599346729e+35	2.8616012607e-05	0.00247113574992	2.24878602474e+29	0.00792652637584	0.00247113574992	1.17954823097e+33	3.0116163728e-05	0.00247113574992
60	1.00257924449e+36	3.35023934975e-05	0.00290555798393	1.77267141116e+29	0.00769066322745	0.00290555798393	8.94599966807e+32	2.80904864119e-05	0.00290555798393
61	1.62365811932e+36	3.92666356152e-05	0.00341635104355	1.33914283728e+29	0.0074773820672	0.00341635104355	6.4549312749e+32	2.60719451814e-05	0.00341635104355
62	2.63090578029e+36	4.607244393e-05	0.00401694081389	9.66849151835e+28	0.00729261775378	0.00401694081389	4.40333462548e+32	2.40163364216e-05	0.00401694081389
63	4.26457595344e+36	5.4142168313e-05	0.00472311343202	6.6524817245e+28	0.00714310113193	0.00472311343202	2.82454456876e+32	2.19250996347e-05	0.00472311343202
64	6.91454777769e+36	6.3818208744e-05	0.00555343021599	4.348884175e+28	0.00703616816475	0.00555343021599	1.69973692256e+32	1.98769487035e-05	0.00555343021599
65	1.12135454729e+37	7.57471609175e-05	0.00652971553782	2.69210178368e+28	0.00697976199515	0.00652971553782	9.59102123015e+31	1.7970518714e-05	0.00652971553782
66	1.81882927196e+37	9.14795930252e-05	0.00767763046378	1.57221619924e+28	0.00698260662863	0.00767763046378	5.05295746706e+31	1.62159973137e-05	0.00767763046378
67	2.95038991729e+37	0.000115563548895	0.00902734724002	8.62661359721e+27	0.00705474145165	0.00902734724002	2.4716110839e+31	1.46037447796e-05	0.00902734724002
68	4.78550419926e+37	0.000163273351509	0.0106143423516	4.42625832921e+27	0.00720783593191	0.0106143423516	1.11562119773e+31	1.31244561846e-05	0.0106143423516
69	7.7568664415e+37	0.000290951986415	0.0124803290005	2.1123297416e+27	0.00745549948137	0.0124803290005	4.61614641173e+30	1.17691735619e-05	0.0124803290005
70	1.25380619212e+38	0.000728612676566	0.0146743535117	9.31777990227e+26	0.00781364847841	0.0146743535117	1.73840754841e+30	1.05293465154e-05	0.0146743535117
71	2.00357176255e+38	0.00251734469573	0.0172540844858	3.771971292e+26	0.00830093421142	0.0172540844858	5.91238023323e+29	9.39699715816e-06	0.0172540844858
72	3.05072490088e+38	0.0104866713633	0.0202873285835	1.38978797252e+26	0.00893918933652	0.0202873285835	1.80090752483e+29	8.36512242628e-06	0.0202873285835
73	3.8501878772e+38	0.0426754512099	0.0238538127824	4.61714537889e+25	0.00975359869796	0.0238538127824	4.86969522496e+28	7.4283365692e-06	0.0238538127824
74	2.97652251275e+38	0.122429751774	0.0280472799519	1.3683693806e+25	0.0107716440146	0.0280472799519	1.15801418261e+28	6.5820701081e-06	0.0280472799519
75	1.20121571488e+38	0.210966389009	0.0329779528278	3.57447565746e+24	0.0120216096196	0.0329779528278	2.39616397419e+27	5.818522377e-06	0.0329779528278
76	3.12289502256e+37	0.271757086233	0.0387754311497	8.12399585071e+23	0.0135358909892	0.0387754311497	4.26288589439e+26	5.12798570006e-06	0.0387754311497
77	6.39351802721e+36	0.323680746417	0.0455920981117	1.58468870273e+23	0.0153545474663	0.0455920981117	6.4376337831e+25	4.50328086995e-06	0.0455920981117
78	1.08538452701e+36	0.380296973274	0.0536071256616	2.6147773948e+22	0.0175252000452	0.0536071256616	8.140789599e+24	3.93905016837e-06	0.0536071256616
79	1.52395287258e+35	0.445973170264	0.063031183927	3.59352136348e+21	0.020103267077	0.063031183927	8.49461236612e+23	3.43065035236e-06	0.063031183927
