0-group 1-eemit(erg/ccm/s) 2-eabs(1/cm) 3-escat(1/cm) 4-aemit(erg/ccm/s) 5-aabs(1/cm) 6-ascat(1/cm) 7-hemit(erg/ccm/s) 8-habs(1/cm) 9-hscat(1/cm)
0	2.02556762093e+28	7.71588112129e-05	4.63370719113e-08	5.80922351769e+23	0.0185298243827	4.63370719113e-08	1.58931144725e+28	0.000123766313384	4.63370719113e-08
1	1.05071490321e+28	6.98920351422e-05	2.00981021693e-07	3.21455203354e+23	0.0182395934677	2.00981021693e-07	8.36350779548e+27	0.000114809220644	2.00981021693e-07
2	1.43187419502e+28	6.88940587259e-05	2.36313206273e-07	4.41952252696e+23	0.0182333294723	2.36313206273e-07	1.14186135798e+28	0.000113685000125	2.36313206273e-07
3	1.94964732386e+28	6.78526917026e-05	2.77856739849e-07	6.07326735767e+23	0.0182263509131	2.77856739849e-07	1.55773601823e+28	0.000112508911723	2.77856739849e-07
4	2.65225992544e+28	6.67669012341e-05	3.26703568949e-07	8.34136880261e+23	0.0182183149364	3.26703568949e-07	2.12328232522e+28	0.000111279465338	3.26703568949e-07
5	3.60463458145e+28	6.56357566495e-05	3.84137602789e-07	1.14502075662e+24	0.0182096708904	3.84137602789e-07	2.89155517906e+28	0.000109995264887	3.84137602789e-07
6	4.89402833569e+28	6.44584480904e-05	4.51668460039e-07	1.57083477906e+24	0.0182003742317	4.51668460039e-07	3.93405199093e+28	0.000108655027948	4.51668460039e-07
7	6.63751093938e+28	6.32343021217e-05	5.31071148236e-07	2.15359212289e+24	0.0181902247676	5.31071148236e-07	5.3469610521e+28	0.000107257598491	5.31071148236e-07
8	8.99185329181e+28	6.19627675135e-05	6.24432718779e-07	2.95023570002e+24	0.0181778324972	6.24432718779e-07	7.25945023262e+28	0.000105801895845	6.24432718779e-07
9	1.21665952809e+29	6.06435715096e-05	7.34207123804e-07	4.03847308132e+24	0.0181644994692	7.34207123804e-07	9.84466143487e+28	0.000104287223448	7.34207123804e-07
10	1.64411982521e+29	5.92766005851e-05	8.63279716827e-07	5.52353428402e+24	0.0181501573594	8.63279716827e-07	1.33341860459e+29	0.000102712997272	8.63279716827e-07
11	2.2187546773e+29	5.78619710817e-05	1.0150430925e-06	7.54790010087e+24	0.0181347334332	1.0150430925e-06	1.80371243624e+29	0.000101078873147	1.0150430925e-06
12	2.98993298353e+29	5.64000523072e-05	1.19348625892e-06	1.03041410226e+25	0.0181181503472	1.19348625892e-06	2.43650595187e+29	9.93847745048e-05	1.19348625892e-06
13	4.02302610528e+29	5.48914897978e-05	1.40329948626e-06	1.40520154308e+25	0.018100325957	1.40329948626e-06	3.28646610963e+29	9.7630920763e-05	1.40329948626e-06
14	5.40435866322e+29	5.33372285505e-05	1.64999758766e-06	1.91411613702e+25	0.018081173135	1.64999758766e-06	4.42600707456e+29	9.58178561423e-05	1.64999758766e-06
15	7.24759202709e+29	5.17385359826e-05	1.94006487278e-06	2.6041096945e+25	0.0180605996038	1.94006487278e-06	5.95077530029e+29	9.39464786745e-05	1.94006487278e-06
16	9.70191394751e+29	5.00970243175e-05	2.28112558391e-06	3.53807180898e+25	0.0180385088582	2.28112558391e-06	7.98671231789e+29	9.20180690901e-05	2.28112558391e-06
17	1.29624879966e+30	4.84146720391e-05	2.68214429454e-06	4.80001061231e+25	0.0180148191049	2.68214429454e-06	1.06990993499e+30	9.00343191989e-05	2.68214429454e-06
18	1.72837066132e+30	4.66938439874e-05	3.15366153775e-06	6.50178786792e+25	0.017989405383	3.15366153775e-06	1.43040702653e+30	8.7997359307e-05	3.15366153775e-06
19	2.29958893365e+30	4.49373096008e-05	3.70807085767e-06	8.79187205287e+25	0.0179621553512	3.70807085767e-06	1.90831692557e+30	8.59097841267e-05	3.70807085767e-06
20	3.05261687887e+30	4.31482587424e-05	4.35994456632e-06	1.18665948148e+26	0.017932952642	4.35994456632e-06	2.54016228283e+30	8.3775047555e-05	4.35994456632e-06
21	4.04244035744e+30	4.13303144778e-05	5.12641676792e-06	1.59845403015e+26	0.0179016748309	5.12641676792e-06	3.3731085064e+30	8.15965240178e-05	5.12641676792e-06
22	5.33950376855e+30	3.94875421086e-05	6.02763371841e-06	2.14847859857e+26	0.0178681944548	6.02763371841e-06	4.46776890836e+30	7.93779330059e-05	6.02763371841e-06
23	7.03358729767e+30	3.76244537077e-05	7.0872833576e-06	2.88098063581e+26	0.0178323794444	7.0872833576e-06	5.90162789748e+30	7.71239748775e-05	7.0872833576e-06
24	9.23847107241e+30	3.57460073569e-05	8.33321793218e-06	3.85339201061e+26	0.0177940935973	8.33321793218e-06	7.77316801713e+30	7.48400611355e-05	8.33321793218e-06
25	1.20974718241e+31	3.38576002508e-05	9.79818607516e-06	5.13981782198e+26	0.017753197173	9.79818607516e-06	1.02067758073e+31	7.25319442571e-05	9.79818607516e-06
26	1.57896210829e+31	3.19644605012e-05	1.15206935838e-05	6.83517744832e+26	0.0177093548194	1.15206935838e-05	1.33581847569e+31	7.02043830043e-05	1.15206935838e-05
27	2.05376342503e+31	3.00732388443e-05	1.3546015521e-05	9.06034502421e+26	0.0176625422757	1.3546015521e-05	1.7421583406e+31	6.78652087419e-05	1.3546015521e-05
28	2.66159663302e+31	2.81907184701e-05	1.59273862428e-05	1.19678871078e+27	0.0176126688054	1.59273862428e-05	2.26366696412e+31	6.55221939883e-05	1.59273862428e-05
29	3.43598471031e+31	2.63238402746e-05	1.87273986314e-05	1.57486050933e+27	0.0175595891604	1.87273986314e-05	2.92965011531e+31	6.31831343016e-05	1.87273986314e-05
30	4.41749687845e+31	2.44798298361e-05	2.20196493105e-05	2.06386998875e+27	0.0175031605568	2.20196493105e-05	3.77557494855e+31	6.08562491178e-05	2.20196493105e-05
31	5.65472194373e+31	2.26661374219e-05	2.58906730881e-05	2.69271805681e+27	0.0174432447262	2.58906730881e-05	4.8438633847e+31	5.85501247022e-05	2.58906730881e-05
32	7.20519427998e+31	2.08903674553e-05	3.04422174715e-05	3.49629781294e+27	0.0173797103385	3.04422174715e-05	6.18458037804e+31	5.62736450153e-05	3.04422174715e-05
33	9.1361974719e+31	1.91601975754e-05	3.57939170383e-05	4.51609112185e+27	0.0173124358427	3.57939170383e-05	7.85590471188e+31	5.40359104038e-05	3.57939170383e-05
34	1.15248967561e+32	1.74825859272e-05	4.20864379588e-05	5.80019158127e+27	0.0172403132825	4.20864379588e-05	9.92377162945e+31	5.1843744611e-05	4.20864379588e-05
35	1.44590166372e+32	1.58650523571e-05	4.9485175321e-05	7.39942762888e+27	0.0171534671502	4.9485175321e-05	1.24617802996e+32	4.97058996044e-05	4.9485175321e-05
36	1.8037586848e+32	1.4315789816e-05	5.81846004392e-05	9.37695238247e+27	0.0170617838282	5.81846004392e-05	1.55507117014e+32	4.76343294666e-05	5.81846004392e-05
37	2.23694213341e+32	1.28417956933e-05	6.84133724154e-05	1.17976719982e+28	0.0169651731102	6.84133724154e-05	1.92750046417e+32	4.56379717698e-05	6.84133724154e-05
38	2.75730003239e+32	1.14495696539e-05	8.04403483038e-05	1.47208127642e+28	0.0168552515792	8.04403483038e-05	2.37193219519e+32	4.37252276891e-05	8.04403483038e-05
39	3.37728271997e+32	1.01439404235e-05	9.45816498556e-05	1.82099106933e+28	0.0167366316995	9.45816498556e-05	2.8959455908e+32	4.18987094491e-05	9.45816498556e-05
40	4.11108018108e+32	8.93160190807e-06	0.000111208972587	2.23202042286e+28	0.0166121786091	0.000111208972587	3.50645034856e+32	4.01716075139e-05	0.000111208972587
41	4.97435276949e+32	7.817072429e-06	0.00013075935557	2.70881167682e+28	0.0164819192965	0.00013075935557	4.2079250318e+32	3.85507008904e-05	0.00013075935557
42	5.98451279552e+32	6.80253062701e-06	0.000153746668738	3.25013081607e+28	0.0163346809706	0.000153746668738	5.0002409774e+32	3.70324474053e-05	0.000153746668738
43	7.16652731378e+32	5.89229696453e-06	0.000180775119647	3.85321327886e+28	0.016176002645	0.000180775119647	5.88037712901e+32	3.56297561307e-05	0.000180775119647
44	8.55473637407e+32	5.08764346888e-06	0.000212555134701	4.5108530225e+28	0.0160107463478	0.000212555134701	6.83767648215e+32	3.43420696252e-05	0.000212555134701
45	1.02049987868e+33	4.38992584902e-06	0.000249922032278	5.20886423428e+28	0.0158383637321	0.000249922032278	7.85514850526e+32	3.3174980281e-05	0.000249922032278
46	1.22072735502e+33	3.79836866357e-06	0.000293857978572	5.91831632656e+28	0.0156375964158	0.000293857978572	8.90460240883e+32	3.21217165575e-05	0.000293857978572
47	1.47181718944e+33	3.31258132652e-06	0.000345517803224	6.61270656755e+28	0.0154193650627	0.000345517803224	9.95062627932e+32	3.11845682227e-05	0.000345517803224
48	1.80053489652e+33	2.93122060705e-06	0.000406259353329	7.2611853454e+28	0.0151944686214	0.000406259353329	1.09489329741e+33	3.03638287674e-05	0.000406259353329
49	2.25204469277e+33	2.65190713432e-06	0.000477679183611	7.82098794345e+28	0.0149560709671	0.000477679183611	1.18445102303e+33	2.96501507936e-05	0.000477679183611
50	2.90270027463e+33	2.47239543998e-06	0.0005616545209	8.24230588533e+28	0.0146903713558	0.0005616545209	1.25783983364e+33	2.90373948709e-05	0.0005616545209
51	3.8802502193e+33	2.39061718768e-06	0.000660392605896	8.49112904626e+28	0.0144094211484	0.000660392605896	1.30935455627e+33	2.85239707151e-05	0.000660392605896
52	5.39522407823e+33	2.40433268046e-06	0.000776488709152	8.53377709421e+28	0.0141113046137	0.000776488709152	1.33311625757e+33	2.80917262426e-05	0.000776488709152
53	7.79454270624e+33	2.51252733863e-06	0.000912994346176	8.34708472442e+28	0.0137910459056	0.000912994346176	1.32517458469e+33	2.77373492427e-05	0.000912994346176
54	1.16447218698e+34	2.71509395693e-06	0.00107349748467	7.93092971472e+28	0.0134533152365	0.00107349748467	1.28332805379e+33	2.74522706476e-05	0.00107349748467
55	1.78674501687e+34	3.0133858579e-06	0.00126221685208	7.30120325238e+28	0.0130960354647	0.00126221685208	1.20743974594e+33	2.72165861679e-05	0.00126221685208
56	2.79604330119e+34	3.410938625e-06	0.00148411282226	6.49542684506e+28	0.0127193354892	0.00148411282226	1.10101246883e+33	2.70245414729e-05	0.00148411282226
57	4.43517980936e+34	3.91364651057e-06	0.00174501779594	5.56943019116e+28	0.0123257495866	0.00174501779594	9.70050459382e+32	2.68582088117e-05	0.00174501779594
58	7.0975929025e+34	4.5302939845e-06	0.00205178950175	4.58965140462e+28	0.0119185393615	0.00205178950175	8.22348277701e+32	2.66834079576e-05	0.00205178950175
59	1.14209337653e+35	5.27315523666e-06	0.00241249124754	3.62361560637e+28	0.0114996991109	0.00241249124754	6.67740959751e+32	2.6456978601e-05	0.00241249124754
60	1.8438709098e+35	6.15843523187e-06	0.00283660385946	2.73174507466e+28	0.0110716868762	0.00283660385946	5.15778006079e+32	2.60856004065e-05	0.00283660385946
61	2.98268137773e+35	7.20698380599e-06	0.00333527487973	1.95984364101e+28	0.0106402672497	0.00333527487973	3.76174390211e+32	2.54770659646e-05	0.00333527487973
62	4.8303438776e+35	8.44519868114e-06	0.00392161157303	1.33343119569e+28	0.0102124312263	0.00392161157303	2.56869058294e+32	2.4537002448e-05	0.00392161157303
63	7.82785232247e+35	9.90695126502e-06	0.00461102544297	8.57172301728e+27	0.00979493429207	0.00461102544297	1.63139429065e+32	2.32488238837e-05	0.00461102544297
64	1.26908188672e+36	1.16383993326e-05	0.00542163731409	5.18577119578e+27	0.00939511363153	0.00542163731409	9.63267899768e+31	2.17631853394e-05	0.00542163731409
65	2.05806830722e+36	1.3712418777e-05	0.00637475362674	2.94043562142e+27	0.0090206364666	0.00637475362674	5.29623902638e+31	2.02613779888e-05	0.00637475362674
66	3.33827391687e+36	1.62779419951e-05	0.00749542646388	1.55580772503e+27	0.00867925605162	0.00749542646388	2.6888348169e+31	1.87051630686e-05	0.00749542646388
67	5.41575232027e+36	1.97412059918e-05	0.00881311202989	7.64615600183e+26	0.00837942325898	0.00881311202989	1.24606856053e+31	1.70286947519e-05	0.00881311202989
68	8.78730629435e+36	2.54872888318e-05	0.010362444889	3.47337722031e+26	0.0081302155921	0.010362444889	5.24343660494e+30	1.53050048352e-05	0.010362444889
69	1.42589303017e+37	3.89928491425e-05	0.0121841483137	1.45071155123e+26	0.00794083325891	0.0121841483137	2.0067814798e+30	1.36978297442e-05	0.0121841483137
70	2.31348806481e+37	8.38820437936e-05	0.0143261046713	5.53881302143e+25	0.00782098464579	0.0143261046713	6.94514517623e+29	1.22290345646e-05	0.0143261046713
71	3.74998933412e+37	0.000277338070166	0.0168446139827	1.92096137775e+25	0.00778189062156	0.0168446139827	2.15543941326e+29	1.08884950754e-05	0.0168446139827
72	6.04709363148e+37	0.00127849867787	0.0198058737345	6.00975361876e+24	0.00783671576072	0.0198058737345	5.94479417962e+28	9.66672119738e-06	0.0198058737345
73	9.47912753009e+37	0.00707614144134	0.0232877188394	1.68276166771e+24	0.0080009361186	0.0232877188394	1.44292925971e+28	8.55514805592e-06	0.0232877188394
74	1.27888544838e+38	0.0395842906877	0.0273816674797	4.17941379784e+23	0.00829247044823	0.0273816674797	3.05024756897e+27	7.54687723733e-06	0.0273816674797
75	1.01549700281e+38	0.151677918058	0.0321953266071	9.11053678789e+22	0.00873010120744	0.0321953266071	5.55423933644e+26	6.63686349433e-06	0.0321953266071
76	3.4787773981e+37	0.294015998411	0.037855220326	1.72099328243e+22	0.00932957388329	0.037855220326	8.60575082664e+25	5.81746475307e-06	0.037855220326
77	6.7284245716e+36	0.381957827243	0.0445101155027	2.77699000517e+21	0.0101074043167	0.0445101155027	1.11887579367e+25	5.07819041627e-06	0.0445101155027
78	9.88004725876e+35	0.453490459118	0.0523349320121	3.76911576981e+20	0.0110867597507	0.0523349320121	1.20268412577e+24	4.41141581428e-06	0.0523349320121
79	1.17314786075e+35	0.532313798259	0.0615353404002	4.23187710887e+19	0.0122960002647	0.0615353404002	1.05197429612e+23	3.81150716894e-06	0.0615353404002
