0-group 1-eemit(erg/ccm/s) 2-eabs(1/cm) 3-escat(1/cm) 4-aemit(erg/ccm/s) 5-aabs(1/cm) 6-ascat(1/cm) 7-hemit(erg/ccm/s) 8-habs(1/cm) 9-hscat(1/cm)
0	3.04038139052e+17	7.61922330431e-14	1.07990287536e-16	1.24758590652e+17	5.72461231595e-14	1.07990287536e-16	8.60559403112e+15	6.19999181138e-15	1.07990287536e-16
1	2.3634723378e+17	1.14707068214e-13	4.68393824355e-16	1.60134171169e+17	9.62731026258e-14	4.68393824355e-16	1.72633254334e+16	1.06595083668e-14	4.68393824355e-16
2	3.23472940497e+17	1.24679531441e-13	5.50736808379e-16	2.25039839181e+17	1.04670485995e-13	5.50736808379e-16	2.52797564583e+16	1.1649023262e-14	5.50736808379e-16
3	4.38274898242e+17	1.35530489414e-13	6.47555574672e-16	3.11644172335e+17	1.13771860724e-13	6.47555574672e-16	3.64390611232e+16	1.27232119406e-14	6.47555574672e-16
4	5.87362847158e+17	1.47339842189e-13	7.6139494566e-16	4.25161707569e+17	1.23638553416e-13	7.6139494566e-16	5.16811821906e+16	1.38892327509e-14	7.6139494566e-16
5	7.77935892083e+17	1.60194455358e-13	8.95247120019e-16	5.7120409235e+17	1.34337366725e-13	8.95247120019e-16	7.20851819363e+16	1.5154878855e-14	8.95247120019e-16
6	1.01728305991e+18	1.74188459422e-13	1.05263032079e-15	7.55347305169e+17	1.45940790363e-13	1.05263032079e-15	9.88180277843e+16	1.6528626367e-14	1.05263032079e-15
7	1.31203926251e+18	1.89423736759e-13	1.23768126976e-15	9.82523068278e+17	1.58527356643e-13	1.23768126976e-15	1.33039101333e+17	1.80196796401e-14	1.23768126976e-15
8	1.66707632593e+18	2.06010403088e-13	1.45526391864e-15	1.25613605364e+18	1.72181939323e-13	1.45526391864e-15	1.75749784893e+17	1.96380129624e-14	1.45526391864e-15
9	2.08406198328e+18	2.24067419577e-13	1.71109729511e-15	1.57695238357e+18	1.86996070914e-13	1.71109729511e-15	2.27585485798e+17	2.13944102836e-14	1.71109729511e-15
10	2.56071127035e+18	2.43723708021e-13	2.01190582398e-15	1.94277369103e+18	2.03068606929e-13	2.01190582398e-15	2.88560397812e+17	2.33005029118e-14	2.01190582398e-15
11	3.09125000891e+18	2.65119248367e-13	2.36559607459e-15	2.34931195282e+18	2.20506151077e-13	2.36559607459e-15	3.57850423306e+17	2.53688198363e-14	2.36559607459e-15
12	3.65602172566e+18	2.88403752565e-13	2.7814645802e-15	2.78030059802e+18	2.39420780797e-13	2.7814645802e-15	4.33487461539e+17	2.76127874832e-14	2.7814645802e-15
13	4.22819748429e+18	3.13741562666e-13	3.27044219174e-15	3.21459368304e+18	2.59933744182e-13	3.27044219174e-15	5.12131762612e+17	3.0046761438e-14	3.27044219174e-15
14	4.77163768416e+18	3.41312559437e-13	3.8453813885e-15	3.62408422402e+18	2.82174674213e-13	3.8453813885e-15	5.89058716333e+17	3.26860728973e-14	3.8453813885e-15
15	5.24262834194e+18	3.71314631959e-13	4.52139409783e-15	3.97508082675e+18	3.06281930968e-13	4.52139409783e-15	6.58381348004e+17	3.55470651002e-14	4.52139409783e-15
16	5.59639799813e+18	4.03966791291e-13	5.31624890292e-15	4.23393705588e+18	3.32462266115e-13	5.31624890292e-15	7.13582585005e+17	3.86471257122e-14	5.31624890292e-15
17	5.78988659426e+18	4.39512355439e-13	6.25083807919e-15	4.36845548186e+18	3.6224422936e-13	6.25083807919e-15	7.4832103528e+17	4.20047101543e-14	6.25083807919e-15
18	5.79141205704e+18	4.78223239371e-13	7.34972673511e-15	4.35582835884e+18	3.94857345046e-13	7.34972673511e-15	7.57462743785e+17	4.56393538871e-14	7.34972673511e-15
19	5.58600220679e+18	5.20404633581e-13	8.6417984911e-15	4.18622249897e+18	4.3054369444e-13	8.6417984911e-15	7.38125558601e+17	4.95716616363e-14	8.6417984911e-15
20	5.18049446779e+18	5.66400597277e-13	1.01610146679e-14	3.86649646678e+18	4.69701923044e-13	1.01610146679e-14	6.90501353252e+17	5.38208606171e-14	1.01610146679e-14
21	4.60523423238e+18	6.16600565107e-13	1.19473069394e-14	3.42128339335e+18	5.12697842724e-13	1.19473069394e-14	6.1819650359e+17	5.84162619119e-14	1.19473069394e-14
22	3.91094782997e+18	6.71446911462e-13	1.40476269122e-14	2.89029556178e+18	5.59902189131e-13	1.40476269122e-14	5.2790962653e+17	6.33753256498e-14	1.40476269122e-14
23	3.16137937509e+18	7.31443591256e-13	1.65171802203e-14	2.32248596967e+18	6.11754559134e-13	1.65171802203e-14	4.28426333546e+17	6.87229171194e-14	1.65171802203e-14
24	2.42278096056e+18	7.97165203992e-13	1.94208775712e-14	1.76790692683e+18	6.68732941558e-13	1.94208775712e-14	3.29113136157e+17	7.44834103548e-14	1.94208775712e-14
25	1.75284772527e+18	8.69263344045e-13	2.28350408851e-14	1.26933642847e+18	7.31360579077e-13	2.28350408851e-14	2.3827447809e+17	8.06803033939e-14	2.28350408851e-14
26	1.19151032066e+18	9.484577115e-13	2.68494093695e-14	8.55423257889e+17	8.00211858664e-13	2.68494093695e-14	1.6181319259e+17	8.73359408887e-14	2.68494093695e-14
27	7.57101654235e+17	1.03546348234e-12	3.15694982601e-14	5.38275330926e+17	8.75914071366e-13	3.15694982601e-14	1.02544400638e+17	9.44705570732e-14	3.15694982601e-14
28	4.47215659369e+17	1.13066572516e-12	3.71193722244e-14	3.14491462867e+17	9.59148588821e-13	3.71193722244e-14	6.03015010443e+16	1.02101041168e-13	3.71193722244e-14
29	2.44081805105e+17	1.23283619596e-12	4.36449063265e-14	1.69542699949e+17	1.05065146923e-12	4.36449063265e-14	3.27042666455e+16	1.10239371619e-13	4.36449063265e-14
30	1.22288766475e+17	1.33498428368e-12	5.1317620264e-14	8.37809223872e+16	1.15121345157e-12	5.1317620264e-14	1.62499078136e+16	1.18890660064e-13	5.1317620264e-14
31	5.58413376631e+16	1.41886493836e-12	6.03391866591e-14	3.76717846648e+16	1.26167905094e-12	6.03391866591e-14	7.34387324131e+15	1.2805074442e-13	6.03391866591e-14
32	2.30622639036e+16	1.47529016137e-12	7.09467319014e-14	1.52925735638e+16	1.38294480575e-12	7.09467319014e-14	2.99512565532e+15	1.377032755e-13	7.09467319014e-14
33	8.54249527626e+15	1.53858982118e-12	8.34190688702e-14	5.55656837869e+15	1.51595667392e-12	8.34190688702e-14	1.09298315231e+15	1.47816256088e-13	8.34190688702e-14
34	2.81241977389e+15	1.62724264677e-12	9.80840253621e-14	1.79049420946e+15	1.66170716804e-12	9.80840253621e-14	3.535875901e+14	1.58338022772e-13	9.80840253621e-14
35	8.14929198557e+14	1.73253514971e-12	1.15327060845e-13	5.06505781008e+14	1.82123322183e-12	1.15327060845e-13	1.00391671391e+14	1.69192711991e-13	1.15327060845e-13
36	2.05638645127e+14	1.8376799265e-12	1.35601398026e-13	1.24423531848e+14	1.99561675753e-12	1.35601398026e-13	2.47443272804e+13	1.80275332553e-13	1.35601398026e-13
37	4.46732686793e+13	1.9505624121e-12	1.59439935536e-13	2.62280411401e+13	2.18599088453e-12	1.59439935536e-13	5.23224288688e+12	1.91446680984e-13	1.59439935536e-13
38	8.25213577339e+12	2.06279416252e-12	1.87469254844e-13	4.68370087003e+12	2.39355628224e-12	1.87469254844e-13	937031377596.0	2.02528489597e-13	1.87469254844e-13
39	1.2789188834e+12	2.17189609048e-12	2.20426089571e-13	698733753515.0	2.61961400343e-12	2.20426089571e-13	140159055843.0	2.13299388132e-13	2.20426089571e-13
40	163904841862.0	2.27511210827e-12	2.59176690087e-13	85774130414.2	2.86562307417e-12	2.59176690087e-13	17247345287.3	2.23492477025e-13	2.59176690087e-13
41	17101273827.8	2.36926439047e-12	3.04739592374e-13	8523056353.03	3.13329333344e-12	3.04739592374e-13	1717649770.51	2.32795528767e-13	3.04739592374e-13
42	1428326698.38	2.45076289661e-12	3.58312389626e-13	673436414.39	3.4247256628e-12	3.58312389626e-13	135998082.383	2.40855005717e-13	3.58312389626e-13
43	93773590.5028	2.51569221461e-12	4.21303210256e-13	41502457.7997	3.7426125467e-12	4.21303210256e-13	8397258.8729	2.47285140439e-13	4.21303210256e-13
44	4745142.04111	2.55996573366e-12	4.953677297e-13	1953594.66261	4.09051094221e-12	4.953677297e-13	395969.039412	2.51683181275e-13	4.953677297e-13
45	181180.111779	2.57954985561e-12	5.82452688833e-13	68662.3983958	4.47319600935e-12	5.82452688833e-13	13939.5317213	2.53651471225e-13	5.82452688833e-13
46	5101.43551913	2.57075635345e-12	6.84847062877e-13	1758.05525359	4.89709779046e-12	6.84847062877e-13	357.445579895	2.52826238296e-13	6.84847062877e-13
47	103.324382893	2.53058989035e-12	8.05242225718e-13	31.9286088536	5.3708134201e-12	8.05242225718e-13	6.50062467358	2.48911828664e-13	8.05242225718e-13
48	1.46535761625	2.45712355027e-12	9.46802691035e-13	0.399564868724	5.90567574642e-12	9.46802691035e-13	0.0814541864388	2.41717712263e-13	9.46802691035e-13
49	0.0141322899128	2.34986074141e-12	1.11324928962e-12	0.00333902553794	6.51634736336e-12	1.11324928962e-12	0.000681480287921	2.31194160655e-13	1.11324928962e-12
50	8.97823608808e-05	2.21003047389e-12	1.30895696914e-12	1.80090467193e-05	7.22139981678e-12	1.30895696914e-12	3.67952982879e-06	2.17461376401e-13	1.30895696914e-12
51	3.62928753002e-07	2.04075868745e-12	1.53906978702e-12	6.04181256249e-08	8.04383446764e-12	1.53906978702e-12	1.23566373008e-08	2.00826424314e-13	1.53906978702e-12
52	8.98823094602e-10	1.84706427259e-12	1.8096361188e-12	1.21133709982e-10	9.01150684907e-12	1.8096361188e-12	2.47971572326e-11	1.81782900644e-13	1.8096361188e-12
53	1.30923176108e-12	1.63564617927e-12	2.12776763606e-12	1.39592261809e-13	1.0157431542e-11	2.12776763606e-12	2.90928186124e-14	1.6099002254e-13	2.12776763606e-12
54	1.92843655438e-15	1.41445636707e-12	2.50182623237e-12	9.44825541944e-16	1.1519968487e-11	2.50182623237e-12	8.75632812828e-16	1.39230613003e-13	2.50182623237e-12
55	1.18636053388e-15	1.19208834451e-12	2.94164381059e-12	1.18592019211e-15	1.3142920781e-11	2.94164381059e-12	1.18589771584e-15	1.17350904124e-13	2.94164381059e-12
56	1.63949849111e-15	9.77046433366e-13	3.45878070844e-12	1.63949839161e-15	1.50756030042e-11	3.45878070844e-12	1.63949838803e-15	9.61885694466e-14	3.45878070844e-12
57	2.26661041422e-15	7.76989297949e-13	4.06682955496e-12	2.26661041421e-15	1.73729617014e-11	4.06682955496e-12	2.26661041421e-15	7.64981973761e-14	4.06682955496e-12
58	3.13359428116e-15	5.98055583884e-13	4.78177254451e-12	3.13359428116e-15	2.00958397996e-11	4.78177254451e-12	3.13359428116e-15	5.88848304782e-14	4.78177254451e-12
59	4.33220153642e-15	4.44374429097e-13	5.62240151902e-12	4.33220153642e-15	2.3311470027e-11	5.62240151902e-12	4.33220153642e-15	4.37556984795e-14	5.62240151902e-12
60	5.98927891369e-15	3.17837311902e-13	6.61081190016e-12	5.98927891369e-15	2.70942572327e-11	6.61081190016e-12	5.98927891369e-15	3.12976850143e-14	6.61081190016e-12
61	8.28019232354e-15	2.18163222494e-13	7.77298345403e-12	8.28019232354e-15	3.15268682887e-11	7.77298345403e-12	8.28019232354e-15	2.14836879444e-14	7.77298345403e-12
62	1.14473855539e-14	1.4323490449e-13	9.13946315357e-12	1.14473855539e-14	3.67015977739e-11	9.13946315357e-12	1.14473855539e-14	1.41056895892e-14	9.13946315357e-12
63	1.58260377174e-14	8.96325382366e-14	1.07461680871e-11	1.58260377174e-14	4.27219280638e-11	1.07461680871e-11	1.58260377174e-14	8.82729025017e-15	1.07461680871e-11
64	2.18795347334e-14	5.32563248412e-14	1.26353295173e-11	2.18795347334e-14	4.5019420334e-13	1.26353295173e-11	2.18795347334e-14	5.24501599557e-15	1.26353295173e-11
65	3.02485087358e-14	2.99209658442e-14	1.48566029041e-11	3.02485087358e-14	5.87980088253e-21	1.48566029041e-11	3.02485087358e-14	2.81564965001e-18	1.48566029041e-11
66	4.18186351717e-14	3.42336397706e-19	1.74683730683e-11	4.18186351717e-14	1.64638003077e-29	1.74683730683e-11	4.18186351717e-14	3.59103402868e-27	1.74683730683e-11
67	5.781436245e-14	7.70838018379e-29	2.05392888014e-11	5.781436245e-14	8.6775680383e-39	2.05392888014e-11	5.781436245e-14	1.0573621941e-32	2.05392888014e-11
68	7.99284934042e-14	1.78425600132e-37	2.41500672568e-11	7.99284934042e-14	1.61929012949e-42	2.41500672568e-11	7.99284934042e-14	1.14646002691e-32	2.41500672568e-11
69	1.10501331973e-13	1.90603743576e-37	2.83956155516e-11	1.10501331973e-13	1.7558656551e-42	2.83956155516e-11	1.10501331973e-13	1.24316026799e-32	2.83956155516e-11
70	1.52768353908e-13	2.0667991301e-37	3.33875253423e-11	1.52768353908e-13	1.90396110921e-42	3.33875253423e-11	1.52768353908e-13	1.34801644702e-32	3.33875253423e-11
71	2.11202612124e-13	2.24111986401e-37	3.92570059436e-11	2.11202612124e-13	2.06454730098e-42	3.92570059436e-11	2.11202612124e-13	1.46171645603e-32	3.92570059436e-11
72	2.91988112897e-13	2.43014324054e-37	4.61583330858e-11	2.91988112897e-13	2.2386777302e-42	4.61583330858e-11	2.91988112897e-13	1.58500620558e-32	4.61583330858e-11
73	4.03674259593e-13	2.63510931703e-37	5.4272903958e-11	4.03674259593e-13	2.42749475144e-42	5.4272903958e-11	4.03674259593e-13	1.71869451818e-32	5.4272903958e-11
74	5.5808062267e-13	2.85736274035e-37	6.38140051235e-11	5.5808062267e-13	2.63223706828e-42	6.38140051235e-11	5.5808062267e-13	1.86365843441e-32	6.38140051235e-11
75	7.71547786361e-13	3.09836156821e-37	7.50324186276e-11	7.71547786361e-13	2.85424785964e-42	7.50324186276e-11	7.71547786361e-13	2.02084896666e-32	7.50324186276e-11
76	1.06666664718e-12	3.35968683452e-37	8.82230136504e-11	1.06666664718e-12	3.09498359146e-42	8.82230136504e-11	1.06666664718e-12	2.19129733802e-32	8.82230136504e-11
77	1.4746691732e-12	3.64305292151e-37	1.03732496965e-10	1.4746691732e-12	3.35602357166e-42	1.03732496965e-10	1.4746691732e-12	2.37612174753e-32	1.03732496965e-10
78	2.0387336345e-12	3.95031880663e-37	1.21968525914e-10	2.0387336345e-12	3.63908031088e-42	1.21968525914e-10	2.0387336345e-12	2.57653470588e-32	1.21968525914e-10
79	2.81855409197e-12	4.28350025813e-37	1.43410423433e-10	2.81855409197e-12	3.94601075714e-42	1.43410423433e-10	2.81855409197e-12	2.79385098992e-32	1.43410423433e-10
