0-group 1-eemit(erg/ccm/s) 2-eabs(1/cm) 3-escat(1/cm) 4-aemit(erg/ccm/s) 5-aabs(1/cm) 6-ascat(1/cm) 7-hemit(erg/ccm/s) 8-habs(1/cm) 9-hscat(1/cm)
0	9.70969422218e+23	7.1374164655e-09	2.28390117165e-10	1.07127403158e+23	6.89308892591e-10	2.28390117165e-10	1.11531843329e+23	4.90241585288e-10	2.28390117165e-10
1	6.41345249516e+23	8.49719351305e-09	9.90612423251e-10	5.44503467186e+22	6.4883562728e-10	9.90612423251e-10	5.27608016714e+22	4.1340681332e-10	9.90612423251e-10
2	9.255901527e+23	8.93711428887e-09	1.16476071193e-09	7.41807614167e+22	6.4616606539e-10	1.16476071193e-09	7.09874791184e+22	4.04008016517e-10	1.16476071193e-09
3	1.33955338003e+24	9.43031704172e-09	1.36952402799e-09	1.01039580583e+23	6.43832427289e-10	1.36952402799e-09	9.53725837895e+22	3.94421565541e-10	1.36952402799e-09
4	1.94427042406e+24	9.98432519673e-09	1.61028445072e-09	1.37599807686e+23	6.41888030274e-10	1.61028445072e-09	1.27939632109e+23	3.84663622912e-10	1.61028445072e-09
5	2.8303880167e+24	1.06079012615e-08	1.8933702215e-09	1.8736501771e+23	6.40391102879e-10	1.8933702215e-09	1.71353858887e+23	3.74753171734e-10	1.8933702215e-09
6	4.13295869471e+24	1.13112802831e-08	2.22622207777e-09	2.55107785041e+23	6.3940504584e-10	2.22622207777e-09	2.29116691925e+23	3.64712223484e-10	2.22622207777e-09
7	6.05383039423e+24	1.21064527772e-08	2.61758882824e-09	3.47332257334e+23	6.38998672832e-10	2.61758882824e-09	3.05815811547e+23	3.54566006439e-10	2.61758882824e-09
8	8.89562489766e+24	1.30075088408e-08	3.0777573101e-09	4.72906825022e+23	6.39246428442e-10	3.0777573101e-09	4.07445528487e+23	3.44343130038e-10	3.0777573101e-09
9	1.31134421976e+25	1.40310582485e-08	3.61882277219e-09	6.43929894128e+23	6.40228584045e-10	3.61882277219e-09	5.4181576934e+23	3.34075720647e-10	3.61882277219e-09
10	1.9393739928e+25	1.5196745311e-08	4.25500679131e-09	8.76915071036e+23	6.42031413969e-10	4.25500679131e-09	7.19072294318e+23	3.23799524452e-10	4.25500679131e-09
11	2.87749626871e+25	1.65278824342e-08	5.00303107776e-09	1.19441378414e+24	6.44747356909e-10	5.00303107776e-09	9.52356057985e+23	3.13553973513e-10	5.00303107776e-09
12	4.28324377566e+25	1.80522330298e-08	5.88255699523e-09	1.62723629514e+24	6.48475162488e-10	5.88255699523e-09	1.25863607962e+24	3.03382211233e-10	5.88255699523e-09
13	6.3962369929e+25	1.98029832476e-08	6.91670234789e-09	2.21748998075e+24	6.5332005888e-10	6.91670234789e-09	1.65975810928e+24	2.93331074456e-10	6.91670234789e-09
14	9.58188795547e+25	2.18199535014e-08	8.13264901779e-09	3.0227309673e+24	6.59393942335e-10	8.13264901779e-09	2.18376115013e+24	2.83451030102e-10	8.13264901779e-09
15	1.4398769139e+26	2.41511160116e-08	9.56235742409e-09	4.1216274581e+24	6.66815620569e-10	9.56235742409e-09	2.8665260595e+24	2.73796065474e-10	9.56235742409e-09
16	2.17026115459e+26	2.68545047365e-08	1.12434065833e-08	5.76066093995e+24	6.94491522943e-10	1.12434065833e-08	3.75383572054e+24	2.64423533058e-10	1.12434065833e-08
17	3.28070352099e+26	3.00006308278e-08	1.32199818507e-08	1.19318769017e+25	1.1119071317e-09	1.32199818507e-08	4.90394561043e+24	2.55393952906e-10	1.32199818507e-08
18	4.97321732416e+26	3.36755523976e-08	1.5544036306e-08	2.29485193167e+25	1.62200151584e-09	1.5544036306e-08	6.39078822012e+24	2.46770778494e-10	1.5544036306e-08
19	7.55894451665e+26	3.79847949781e-08	1.82766563079e-08	4.2250831453e+25	2.24909499902e-09	1.82766563079e-08	8.30796621964e+24	2.38620135522e-10	1.82766563079e-08
20	1.15177087994e+27	4.30583826287e-08	2.14896671123e-08	7.60395286846e+25	3.04170851179e-09	2.14896671123e-08	1.07737292067e+25	2.3101054736e-10	2.14896671123e-08
21	1.75901520675e+27	4.90573246284e-08	2.52675207553e-08	1.34252536541e+26	4.03526122592e-09	2.52675207553e-08	1.39371789538e+25	2.2401266588e-10	2.52675207553e-08
22	2.69201433148e+27	5.61820160226e-08	2.97095158238e-08	2.32895834483e+26	5.266863158e-09	2.97095158238e-08	1.79860092553e+25	2.17699032059e-10	2.97095158238e-08
23	4.12745255906e+27	6.46831608947e-08	3.49324074581e-08	3.97426327508e+26	6.77801498914e-09	3.49324074581e-08	2.31561580003e+25	2.12143896889e-10	3.49324074581e-08
24	6.3381356608e+27	7.48760259119e-08	4.10734761906e-08	6.67774430265e+26	8.61598191856e-09	4.10734761906e-08	2.97438265505e+25	2.07423139496e-10	4.10734761906e-08
25	9.74487076083e+27	8.71590908772e-08	4.82941362802e-08	1.10569365412e+27	1.08349898485e-08	4.82941362802e-08	3.81203937343e+25	2.03614325464e-10	4.82941362802e-08
26	1.49956590196e+28	1.02038495091e-07	5.67841783887e-08	1.8053184561e+27	1.3497531993e-08	5.67841783887e-08	4.87507961588e+25	2.00796953526e-10	5.67841783887e-08
27	2.30858052851e+28	1.20160092161e-07	6.67667581127e-08	2.90801697812e+27	1.66759182863e-08	6.67667581127e-08	6.22159221688e+25	1.99052942038e-10	6.67667581127e-08
28	3.55385397482e+28	1.42351419052e-07	7.85042614928e-08	4.62279477068e+27	2.04541696464e-08	7.85042614928e-08	7.92394052465e+25	1.98467406823e-10	7.85042614928e-08
29	5.46735976809e+28	1.69676429396e-07	9.23052016712e-08	7.25356095244e+27	2.49303606501e-08	9.23052016712e-08	1.00718796691e+26	1.99129777048e-10	9.23052016712e-08
30	8.40006812608e+28	2.03506356453e-07	1.08532327972e-07	1.12343842786e+28	3.02195255231e-08	1.08532327972e-07	1.27760289124e+26	2.01135283914e-10	1.08532327972e-07
31	1.28784509359e+29	2.45610383817e-07	1.27612160548e-07	1.71732594751e+28	3.64572564493e-08	1.27612160548e-07	1.61714734345e+26	2.04586834984e-10	1.27612160548e-07
32	1.96834680844e+29	2.98269582087e-07	1.50046201201e-07	2.59036287608e+28	4.38041365615e-08	1.50046201201e-07	2.04210377176e+26	2.09597251649e-10	1.50046201201e-07
33	2.99569180285e+29	3.64416255203e-07	1.76424115054e-07	3.8540670298e+28	5.24511602276e-08	1.76424115054e-07	2.57174210196e+26	2.16291795048e-10	1.76424115054e-07
34	4.53370834741e+29	4.47797577447e-07	2.07439229541e-07	5.65358933765e+28	6.26262984465e-08	2.07439229541e-07	3.22828897123e+26	2.24810832933e-10	2.07439229541e-07
35	6.81178436357e+29	5.531560933e-07	2.43906758095e-07	8.17187049499e+28	7.4602366108e-08	2.43906758095e-07	4.03645803092e+26	2.35312405474e-10	2.43906758095e-07
36	1.01409775643e+30	6.86409289475e-07	2.86785227538e-07	1.16307465445e+29	8.87063404928e-08	2.86785227538e-07	5.02227351711e+26	2.47974334826e-10	2.86785227538e-07
37	1.4925535209e+30	8.54796020177e-07	3.37201672378e-07	1.62865816238e+29	1.05330268501e-07	3.37201672378e-07	6.21085316338e+26	2.62995405086e-10	3.37201672378e-07
38	2.16613289382e+30	1.06681336004e-06	3.96481258226e-07	2.2417426779e+29	1.24943887996e-07	3.96481258226e-07	7.62279106749e+26	2.80595046402e-10	3.96481258226e-07
39	3.09087777409e+30	1.33261745718e-06	4.66182112964e-07	3.02984815958e+29	1.48109083585e-07	4.66182112964e-07	9.268853397e+26	3.01010943965e-10	4.66182112964e-07
40	4.32259528024e+30	1.66310229297e-06	5.48136281195e-07	4.01631462408e+29	1.75496309225e-07	5.48136281195e-07	1.11429490472e+27	3.24494137905e-10	5.48136281195e-07
41	5.90515550382e+30	2.06986858814e-06	6.4449787842e-07	5.2148639255e+29	2.07903151312e-07	6.4449787842e-07	1.3213844011e+27	3.5130156593e-10	6.4449787842e-07
42	7.85411724776e+30	2.56458202261e-06	7.57799710653e-07	6.62284114867e+29	2.46275288583e-07	7.57799710653e-07	1.54168794664e+27	3.81686660666e-10	7.57799710653e-07
43	1.01383748461e+31	3.15852329553e-06	8.91019847688e-07	8.21385282593e+29	2.91730238507e-07	8.91019847688e-07	1.76479147956e+27	4.1588945207e-10	8.91019847688e-07
44	1.26650702325e+31	3.86249186492e-06	1.04765989986e-06	9.93113704562e+29	3.45584467094e-07	1.04765989986e-06	1.97625096778e+27	4.54128355873e-10	1.04765989986e-06
45	1.52742476836e+31	4.68728071902e-06	1.23183705573e-06	1.16836102764e+30	4.09384674123e-07	1.23183705573e-06	2.15834413896e+27	4.96596030858e-10	1.23183705573e-06
46	1.77483027579e+31	5.64477198662e-06	1.44839229989e-06	1.33469054891e+30	4.84944332486e-07	1.44839229989e-06	2.29184913209e+27	5.43461032591e-10	1.44839229989e-06
47	1.98372673334e+31	6.74948335293e-06	1.70301765532e-06	1.47715410517e+30	5.7438683355e-07	1.70301765532e-06	2.35878789861e+27	5.94875537756e-10	1.70301765532e-06
48	2.12961307369e+31	8.02024965747e-06	2.00240579473e-06	1.57993521534e+30	6.80196841292e-07	2.00240579473e-06	2.34573067263e+27	6.50987696371e-10	2.00240579473e-06
49	2.19268647724e+31	9.4817349677e-06	2.35442595339e-06	1.62873621187e+30	8.05281660646e-07	2.35442595339e-06	2.24694665859e+27	7.11955913857e-10	2.35442595339e-06
50	2.16165488665e+31	1.11656134749e-05	2.76833076721e-06	1.61356148991e+30	9.53044567251e-07	2.76833076721e-06	2.06653947246e+27	7.77932200407e-10	2.76833076721e-06
51	2.03635279055e+31	1.31114333514e-05	3.25499947265e-06	1.53128572993e+30	1.12747213566e-06	3.25499947265e-06	1.81881812754e+27	8.49220814212e-10	3.25499947265e-06
52	1.82851606318e+31	1.53665648578e-05	3.82722386084e-06	1.38724807372e+30	1.33323767727e-06	3.82722386084e-06	1.5265386277e+27	9.25984369346e-10	3.82722386084e-06
53	1.56034260947e+31	1.79886720962e-05	4.50004450202e-06	1.19519730784e+30	1.57582301789e-06	4.50004450202e-06	1.21722474273e+27	1.00854058262e-09	4.50004450202e-06
54	1.26089251724e+31	2.10450887181e-05	5.2911460778e-06	9.75286262733e+29	1.86166107881e-06	5.2911460778e-06	9.18371171673e+26	1.09720602067e-09	5.2911460778e-06
55	9.6095035482e+30	2.46144334727e-05	6.22132221227e-06	7.50411012683e+29	2.19830213279e-06	6.22132221227e-06	6.52735244928e+26	1.19231364391e-09	6.22132221227e-06
56	6.87524789396e+30	2.8788199124e-05	7.31502201977e-06	5.41807180436e+29	2.59460721786e-06	7.31502201977e-06	4.34952427686e+26	1.29419603085e-09	7.31502201977e-06
57	4.59427552239e+30	3.36728007998e-05	8.60099273497e-06	3.65170901405e+29	3.06097299265e-06	8.60099273497e-06	2.70306988601e+26	1.40316459526e-09	8.60099273497e-06
58	2.85129774687e+30	3.9392119072e-05	1.01130353165e-05	2.28449618641e+29	3.60959326501e-06	1.01130353165e-05	1.55776768195e+26	1.51948495737e-09	1.01130353165e-05
59	1.63341521717e+30	4.60905643309e-05	1.18908928847e-05	1.31843638857e+29	4.25476346659e-06	1.18908928847e-05	8.27322850295e+25	1.64334820566e-09	1.18908928847e-05
60	8.57983690861e+29	5.39366933352e-05	1.3981295345e-05	6.97288135168e+28	5.01323544895e-06	1.3981295345e-05	4.0219098564e+25	1.77483737179e-09	1.3981295345e-05
61	4.1024738538e+29	6.31274250273e-05	1.64391876556e-05	3.35521390468e+28	5.90463115207e-06	1.64391876556e-05	1.77654255714e+25	1.91388814725e-09	1.64391876556e-05
62	1.77171102825e+29	7.38929274665e-05	1.93291740219e-05	1.4574543459e+28	6.95192499828e-06	1.93291740219e-05	7.07341222692e+24	2.06024279005e-09	1.93291740219e-05
63	6.8523095246e+28	8.65022764892e-05	2.27272159792e-05	5.66720892381e+27	8.18200637754e-06	2.27272159792e-05	2.51662117151e+24	2.2133963713e-09	2.27272159792e-05
64	2.35176457028e+28	0.000101270015733	2.67226289948e-05	1.95467238528e+27	9.62633540422e-06	2.67226289948e-05	7.92583705502e+23	2.37253504485e-09	2.67226289948e-05
65	7.09176190005e+27	0.00011856377555	3.14204300715e-05	5.92125908212e+26	1.13217073209e-05	3.14204300715e-05	2.18708145088e+23	2.53646694001e-09	3.14204300715e-05
66	1.85890377742e+27	0.00013881313611	3.69440980553e-05	1.55862511599e+26	1.33111435698e-05	3.69440980553e-05	5.22942500286e+22	2.70354764063e-09	3.69440980553e-05
67	4.18659174979e+26	0.00016251994993	4.34388192018e-05	3.52393134257e+25	1.56449306976e-05	4.34388192018e-05	1.07048346711e+22	2.87160409467e-09	4.34388192018e-05
68	8.00039760187e+25	0.000190270373571	5.10753033088e-05	6.75816701571e+24	1.83818319598e-05	5.10753033088e-05	1.85168911659e+21	3.03786324478e-09	5.10753033088e-05
69	1.27970345438e+25	0.000222748898609	6.00542707197e-05	1.08456618313e+24	2.15905007549e-05	6.00542707197e-05	2.66847666905e+20	3.19889464798e-09	6.00542707197e-05
70	1.68837455331e+24	0.000260754718534	7.06117281354e-05	1.43526906196e+23	2.53511298554e-05	7.06117281354e-05	3.15493888546e+19	3.35057966989e-09	7.06117281354e-05
71	1.80833314743e+23	0.000305220819994	8.30251719073e-05	1.54155170222e+22	2.97573757074e-05	8.30251719073e-05	3.00962089707e+18	3.48812306066e-09	8.30251719073e-05
72	1.54544858033e+22	0.000357236241924	9.76208818599e-05	1.32085415501e+21	3.49186026858e-05	9.76208818599e-05	2.27497017936e+17	3.60612509237e-09	9.76208818599e-05
73	1.03440526839e+21	0.000418072001736	0.000114782497358	8.86185845673e+19	4.09624978288e-05	0.000114782497358	1.3361944395e+16	3.69873287566e-09	0.000114782497358
74	5.31376394491e+19	0.000489211240397	0.000134961101035	4.56236755075e+18	4.80381118993e-05	0.000134961101035	5.96983010437e+14	3.75988664168e-09	0.000134961101035
75	2.04958166488e+18	0.000572384184648	0.000158687075222	1.76333084864e+17	5.63193872757e-05	0.000158687075222	1.98263039005e+13	3.78366935899e-09	0.000158687075222
76	5.79628388452e+16	0.000669608562826	0.000186584042732	4.99610343508e+15	6.60092369588e-05	0.000186584042732	477367941483.0	3.76475520267e-09	0.000186584042732
77	1.17124204923e+15	0.000783236141504	0.000219385258398	1.01129944614e+14	7.7344241985e-05	0.000219385258398	8110069161.22	3.69893432478e-09	0.000219385258398
78	1.6443319188e+13	0.000916006078363	0.00025795288224	1.42205747967e+12	9.06000372201e-05	0.00025795288224	94404009.7616	3.58366994248e-09	0.00025795288224
79	155585155417.0	0.00107110582036	0.000303300640806	13475292988.2	0.000106097458756	0.000303300640806	729303.916517	3.41862270438e-09	0.000303300640806
