0-group 1-eemit(erg/ccm/s) 2-eabs(1/cm) 3-escat(1/cm) 4-aemit(erg/ccm/s) 5-aabs(1/cm) 6-ascat(1/cm) 7-hemit(erg/ccm/s) 8-habs(1/cm) 9-hscat(1/cm)
0	1.03276704778e+15	3.93406107726e-18	1.50887476645e-20	1.05624765173e+15	3.11240863295e-15	1.50887476645e-20	4.49840346354e+13	2.02631770468e-16	1.50887476645e-20
1	2.09328199528e+15	1.39242071345e-17	6.54454801869e-20	2.14815986663e+15	4.54563152515e-15	6.54454801869e-20	1.61373498489e+14	2.97213878463e-16	6.54454801869e-20
2	2.85024671416e+15	1.37138471526e-17	7.6950704742e-20	2.91575994757e+15	4.94345852066e-15	7.6950704742e-20	2.31973605222e+14	3.25540903768e-16	7.6950704742e-20
3	3.75036601263e+15	1.30522270282e-17	9.04785318005e-20	3.82265161237e+15	5.37429513214e-15	9.04785318005e-20	3.22759532895e+14	3.56268901857e-16	9.04785318005e-20
4	4.76678597515e+15	1.1999709483e-17	1.06384532074e-19	4.83928390132e+15	5.84096846196e-15	1.06384532074e-19	4.34083584142e+14	3.89592806004e-16	1.06384532074e-19
5	5.85639514797e+15	1.06637404227e-17	1.25086785113e-19	5.92038032022e+15	6.34656029526e-15	1.25086785113e-19	5.63700634779e+14	4.25725296137e-16	1.25086785113e-19
6	6.95474775191e+15	9.15998345988e-18	1.47076868271e-19	7.00058698947e+15	6.89439000923e-15	1.47076868271e-19	7.06113121937e+14	4.64897317673e-16	1.47076868271e-19
7	7.98007840743e+15	7.60246761946e-18	1.72932777518e-19	7.99903414089e+15	7.48797796915e-15	1.72932777518e-19	8.52306717995e+14	5.07357998571e-16	1.72932777518e-19
8	8.83977674501e+15	6.09148012024e-18	2.03334119713e-19	8.82593417434e+15	8.1310651918e-15	2.03334119713e-19	9.90159538315e+14	5.53374212043e-16	2.03334119713e-19
9	9.43720425682e+15	4.70390999494e-18	2.39079975658e-19	9.38899625779e+15	8.82761614829e-15	2.39079975658e-19	1.10560699494e+15	6.03229841857e-16	2.39079975658e-19
10	9.75246243832e+15	3.51612291548e-18	2.8110990345e-19	9.67309850796e+15	9.58183787467e-15	2.8110990345e-19	1.18485177601e+15	6.57225042351e-16	2.8110990345e-19
11	9.90070528299e+15	2.58196296839e-18	3.30528634195e-19	9.79491399289e+15	1.03981493148e-14	3.30528634195e-19	1.21984380065e+15	7.15675995464e-16	3.30528634195e-19
12	9.68695855895e+15	1.82728139321e-18	3.88635109194e-19	9.5619473459e+15	1.12810836553e-14	3.88635109194e-19	1.2054793299e+15	7.78911632926e-16	3.88635109194e-19
13	9.04480350603e+15	1.2341025238e-18	4.56956621826e-19	8.91117554079e+15	1.22354390259e-14	4.56956621826e-19	1.13992475626e+15	8.47273097446e-16	4.56956621826e-19
14	8.02417180865e+15	7.91929346447e-19	5.37288961524e-19	7.89389451171e+15	1.32657728848e-14	5.37288961524e-19	1.02751873517e+15	9.2114121541e-16	5.37288961524e-19
15	6.7424606894e+15	4.81325371699e-19	6.3174361501e-19	6.62604650412e+15	1.43771772576e-14	6.3174361501e-19	8.79285484828e+14	1.0008773696e-15	6.3174361501e-19
16	5.33882651161e+15	2.75676822354e-19	7.42803265443e-19	5.24323497046e+15	1.55748708628e-14	7.42803265443e-19	7.11184319256e+14	1.08666467517e-15	7.42803265443e-19
17	3.97857813837e+15	1.48599193223e-19	8.73387048231e-19	3.9063452386e+15	1.68640192964e-14	8.73387048231e-19	5.41231139021e+14	1.17909540796e-15	8.73387048231e-19
18	2.7722000615e+15	7.48940372479e-20	1.02692727874e-18	2.72197116009e+15	1.82492224436e-14	1.02692727874e-18	3.85691578573e+14	1.27842207531e-15	1.02692727874e-18
19	1.79868941799e+15	3.51489994619e-20	1.2074596686e-18	1.76658879495e+15	1.97348040639e-14	1.2074596686e-18	2.5604469222e+14	1.38495640764e-15	1.2074596686e-18
20	1.08136493232e+15	1.52849204585e-20	1.41972940195e-18	1.06255603839e+15	2.13244554162e-14	1.41972940195e-18	1.57474953021e+14	1.49896338213e-15	1.41972940195e-18
21	5.98899699045e+14	6.12320937892e-21	1.66931585972e-18	5.88830981835e+14	2.30208815496e-14	1.66931585972e-18	8.91945951969e+13	1.62063854999e-15	1.66931585972e-18
22	3.0372762128e+14	2.24617411452e-21	1.96277927025e-18	2.98825714255e+14	2.48254123683e-14	1.96277927025e-18	4.62270015866e+13	1.75007954132e-15	1.96277927025e-18
23	1.40135964197e+14	7.49622906643e-22	2.30783314092e-18	1.37977620593e+14	2.67375142373e-14	2.30783314092e-18	2.17685925539e+13	1.88725085546e-15	2.30783314092e-18
24	5.83509456265e+13	2.2577469045e-22	2.71354700299e-18	5.74970267741e+13	2.87541954424e-14	2.71354700299e-18	9.24337687509e+12	2.03194110837e-15	2.71354700299e-18
25	2.17443907434e+13	6.08567442538e-23	3.19058479874e-18	2.14430725248e+13	3.08692945149e-14	3.19058479874e-18	3.50994491066e+12	2.18371207993e-15	3.19058479874e-18
26	7.18978981795e+12	2.70477576898e-14	3.75148517669e-18	7.09574891879e+12	3.30726564225e-14	3.75148517669e-18	1.18122239443e+12	2.34183932206e-15	3.75148517669e-18
27	2.0887129811e+12	3.52605001322e-14	4.41099106235e-18	2.06299403452e+12	3.53491938634e-14	4.41099106235e-18	348866423067.0	2.50524479798e-15	4.41099106235e-18
28	527293415766.0	4.0309358192e-14	5.18643716707e-18	521192727136.0	3.76778617315e-14	5.18643716707e-18	89467186454.0	2.67242317892e-15	5.18643716707e-18
29	114404437486.0	4.51492969172e-14	6.09820562041e-18	113163353566.0	4.00305895666e-14	6.09820562041e-18	19693235489.4	2.84136501975e-15	6.09820562041e-18
30	21053232486.5	5.05743028548e-14	7.17026170199e-18	20839354785.4	4.23712484266e-14	7.17026170199e-18	3674136700.67	3.00948230531e-15	7.17026170199e-18
31	3243126712.29	5.68850347966e-14	8.43078375431e-18	3212321155.21	4.46547679459e-14	8.43078375431e-18	573124940.285	3.17354463202e-15	8.43078375431e-18
32	411822103.299	6.42903028991e-14	9.91290383337e-18	408167624.625	4.68265644831e-14	9.91290383337e-18	73646550.6734	3.32963753024e-15	9.91290383337e-18
33	42433246.9831	7.23778393958e-14	1.16555785646e-17	42081824.1694	4.88224875065e-14	1.16555785646e-17	7671350.34	3.47315778999e-15	1.16555785646e-17
34	3485049.62862	7.06111156188e-14	1.37046130942e-17	3458127.02583	5.05695313749e-14	1.37046130942e-17	636520.403688	3.59886339311e-15	1.37046130942e-17
35	223897.001896	4.85974194532e-14	1.61138650492e-17	222284.435523	5.19875722882e-14	1.61138650492e-17	41279.2059622	3.70099692005e-15	1.61138650492e-17
36	11020.4394718	4.38810267579e-14	1.8946660153e-17	10946.4499303	5.29923732293e-14	1.8946660153e-17	2049.67943647	3.77349969252e-15	1.8946660153e-17
37	406.403690004	4.41221051581e-14	2.22774567032e-17	403.859950295	5.35000158248e-14	2.22774567032e-17	76.2022792844	3.81032814192e-15	2.22774567032e-17
38	10.9596377399	4.32227319648e-14	2.61938026625e-17	10.895660005	5.34327634448e-14	2.61938026625e-17	2.07037610003	3.80587286747e-15	2.61938026625e-17
39	0.210493160252	4.26339275037e-14	3.07986368042e-17	0.209346068522	5.27261298236e-14	3.07986368042e-17	0.0400409509415	3.75546430685e-15	3.07986368042e-17
40	0.00279829846836	4.14894712813e-14	3.62129943949e-17	0.00278404087153	5.13366382857e-14	3.62129943949e-17	0.000535722322306	3.65592823943e-15	3.62129943949e-17
41	2.49635836791e-05	3.97767129959e-14	4.25791885329e-17	2.48443762307e-05	4.9249452355e-14	4.25791885329e-17	4.80743752573e-06	3.50613249509e-15	4.25791885329e-17
42	1.44500921946e-07	3.75115319681e-14	5.00645507619e-17	1.43851786876e-07	4.64848075173e-14	5.00645507619e-17	2.79797697894e-08	3.30744820021e-15	5.00645507619e-17
43	5.23314991076e-10	3.47414090488e-14	5.88658292783e-17	5.21090975425e-10	4.31020563903e-14	5.88658292783e-17	1.01839431371e-10	3.06404039482e-15	5.88658292783e-17
44	1.13984351775e-12	3.15458603521e-14	6.92143603385e-17	1.13522215884e-12	3.92002270208e-14	6.92143603385e-17	2.22865211399e-13	2.78290901867e-15	6.92143603385e-17
45	1.47688340788e-15	2.80334240858e-14	8.13821487918e-17	1.47128029314e-15	3.49143244592e-14	8.13821487918e-17	3.27310360069e-16	2.47362485295e-15	8.13821487918e-17
46	6.52638027939e-17	2.43350261074e-14	9.56890175618e-17	6.52599957598e-17	3.04071635845e-14	9.56890175618e-17	6.44710602729e-17	2.14774494812e-15	9.56890175618e-17
47	8.88627524068e-17	2.05941294107e-14	1.12511013999e-16	8.88627510165e-17	2.58572337847e-14	1.12511013999e-16	8.88624664688e-17	1.81794308408e-15	1.12511013999e-16
48	1.22852473577e-16	1.69546744955e-14	1.32290294054e-16	1.22852473577e-16	2.14438382645e-14	1.32290294054e-16	1.22852473526e-16	1.49694406672e-15	1.32290294054e-16
49	1.69843836424e-16	1.35483210728e-14	1.55546744082e-16	1.69843836424e-16	1.73313727458e-14	1.55546744082e-16	1.69843836424e-16	1.1963953194e-15	1.55546744082e-16
50	2.34809507259e-16	1.04827855451e-14	1.82891645737e-16	2.34809507259e-16	1.36549588781e-14	1.82891645737e-16	2.34809507259e-16	9.25834477795e-16	1.82891645737e-16
51	3.2462470149e-16	7.83303739369e-15	2.15043743139e-16	3.2462470149e-16	1.05096091937e-14	2.15043743139e-16	3.2462470149e-16	6.91909078129e-16	2.15043743139e-16
52	4.48794420839e-16	5.63672987547e-15	2.52848134625e-16	4.48794420839e-16	7.94462169683e-15	2.52848134625e-16	4.48794420839e-16	4.97970248977e-16	2.52848134625e-16
53	6.2045935276e-16	3.8945332595e-15	2.97298485649e-16	6.2045935276e-16	5.964029124e-15	2.97298485649e-16	6.2045935276e-16	3.44099844341e-16	2.97298485649e-16
54	8.57786528868e-16	2.57514032882e-15	3.49563146669e-16	8.57786528868e-16	4.53281848429e-15	3.49563146669e-16	8.57786528868e-16	2.27550991266e-16	3.49563146669e-16
55	1.18589191352e-15	1.62382790992e-15	4.11015862534e-16	1.18589191352e-15	1.21760338275e-18	4.11015862534e-16	1.18589191352e-15	1.43503605343e-16	4.11015862534e-16
56	1.6394983871e-15	9.72815471681e-16	4.83271880531e-16	1.6394983871e-15	5.9193624197e-26	4.83271880531e-16	1.6394983871e-15	8.59794693979e-17	4.83271880531e-16
57	2.26661041421e-15	5.51444668472e-16	5.68230406174e-16	2.26661041421e-15	7.76307819335e-34	5.68230406174e-16	2.26661041421e-15	8.61022530282e-19	5.68230406174e-16
58	3.13359428116e-15	2.9447300474e-16	6.68124522672e-16	3.13359428116e-15	9.32965855235e-37	6.68124522672e-16	3.13359428116e-15	1.41708457723e-27	6.68124522672e-16
59	4.33220153642e-15	3.07382535217e-19	7.85579886162e-16	4.33220153642e-15	1.01165502735e-36	7.85579886162e-16	4.33220153642e-15	4.38205347072e-32	7.85579886162e-16
60	5.98927891369e-15	1.42552815848e-29	9.23683739483e-16	5.98927891369e-15	1.09698366384e-36	9.23683739483e-16	5.98927891369e-15	4.75167128864e-32	9.23683739483e-16
61	8.28019232354e-15	1.08060619885e-32	1.08606605848e-15	8.28019232354e-15	1.18950912898e-36	1.08606605848e-15	8.28019232354e-15	5.1525091939e-32	1.08606605848e-15
62	1.14473855539e-14	1.17175104829e-32	1.27699496371e-15	1.14473855539e-14	1.28983842113e-36	1.27699496371e-15	1.14473855539e-14	5.58715476173e-32	1.27699496371e-15
63	1.58260377174e-14	1.2705832896e-32	1.50148890541e-15	1.58260377174e-14	1.39862973444e-36	1.50148890541e-15	1.58260377174e-14	6.05845941425e-32	1.50148890541e-15
64	2.18795347334e-14	1.37775128694e-32	1.76544857037e-15	2.18795347334e-14	1.51659677673e-36	1.76544857037e-15	2.18795347334e-14	6.56951506955e-32	1.76544857037e-15
65	3.02485087358e-14	1.49395809868e-32	2.07581197797e-15	3.02485087358e-14	1.64451345175e-36	2.07581197797e-15	3.02485087358e-14	7.12367442577e-32	2.07581197797e-15
66	4.18186351717e-14	1.61996608083e-32	2.44073684173e-15	4.18186351717e-14	1.7832189362e-36	2.44073684173e-15	4.18186351717e-14	7.72457295591e-32	2.44073684173e-15
67	5.781436245e-14	1.75660188843e-32	2.86981498989e-15	5.781436245e-14	1.933623185e-36	2.86981498989e-15	5.781436245e-14	8.37615275776e-32	2.86981498989e-15
68	7.99284934042e-14	1.90476189864e-32	3.37432448078e-15	7.99284934042e-14	2.09671290095e-36	3.37432448078e-15	7.99284934042e-14	9.08268841543e-32	3.37432448078e-15
69	1.10501331973e-13	2.06541809128e-32	3.96752603973e-15	1.10501331973e-13	2.27355800779e-36	3.96752603973e-15	1.10501331973e-13	9.84881504203e-32	3.96752603973e-15
70	1.52768353908e-13	2.23962442539e-32	4.66501160917e-15	1.52768353908e-13	2.46531866931e-36	4.66501160917e-15	1.52768353908e-13	1.06795586876e-31	4.66501160917e-15
71	2.11202612124e-13	2.42852375347e-32	5.48511417335e-15	2.11202612124e-13	2.67325290035e-36	5.48511417335e-15	2.11202612124e-13	1.15803693117e-31	5.48511417335e-15
72	2.91988112897e-13	2.63335531909e-32	6.44938962973e-15	2.91988112897e-13	2.89872481987e-36	6.44938962973e-15	2.91988112897e-13	1.2557156537e-31	6.44938962973e-15
73	4.03674259593e-13	2.85546288666e-32	7.58318337257e-15	4.03674259593e-13	3.14321359999e-36	7.58318337257e-15	4.03674259593e-13	1.36163284184e-31	7.58318337257e-15
74	5.5808062267e-13	3.09630355701e-32	8.91629648129e-15	5.5808062267e-13	3.40832316988e-36	8.91629648129e-15	5.5808062267e-13	1.4764833482e-31	8.91629648129e-15
75	7.71547786361e-13	3.35745732648e-32	1.04837690237e-14	7.71547786361e-13	3.69579273806e-36	1.04837690237e-14	7.71547786361e-13	1.60102063099e-31	1.04837690237e-14
76	1.06666664718e-12	3.6406374522e-32	1.23268010628e-14	1.06666664718e-12	4.00750820222e-36	1.23268010628e-14	1.06666664718e-12	1.73606169693e-31	1.23268010628e-14
77	1.4746691732e-12	3.94770169168e-32	1.44938355757e-14	1.4746691732e-12	4.34551452135e-36	1.44938355757e-14	1.4746691732e-12	1.88249246115e-31	1.44938355757e-14
78	2.0387336345e-12	4.28066449028e-32	1.70418317472e-14	2.0387336345e-12	4.71202913131e-36	1.70418317472e-14	2.0387336345e-12	2.04127355902e-31	1.70418317472e-14
79	2.81855409197e-12	4.64171019667e-32	2.00377621082e-14	2.81855409197e-12	5.10945649203e-36	2.00377621082e-14	2.81855409197e-12	2.2134466483e-31	2.00377621082e-14
