0-group 1-eemit(erg/ccm/s) 2-eabs(1/cm) 3-escat(1/cm) 4-aemit(erg/ccm/s) 5-aabs(1/cm) 6-ascat(1/cm) 7-hemit(erg/ccm/s) 8-habs(1/cm) 9-hscat(1/cm)
0	1.83898345406e+23	2.00206734728e-09	3.96973703051e-11	4.88413256983e+21	2.81419820952e-11	3.96973703051e-11	2.64139456404e+21	1.19616849228e-11	3.96973703051e-11
1	1.25225058605e+23	2.45513976209e-09	1.72182179697e-10	4.10045916483e+21	4.39206847038e-11	1.72182179697e-10	1.48757007114e+21	1.29503002833e-11	1.72182179697e-10
2	1.81389844489e+23	2.59609194268e-09	2.02451567837e-10	5.94415107046e+21	4.64732833613e-11	2.02451567837e-10	2.06145423565e+21	1.31779321659e-11	2.02451567837e-10
3	2.63394008661e+23	2.75413147946e-09	2.38042272388e-10	8.62177035449e+21	4.92166173383e-11	2.38042272388e-10	2.85985869203e+21	1.34351503134e-11	2.38042272388e-10
4	3.8343232378e+23	2.93171439197e-09	2.79889773385e-10	1.25107902352e+22	5.21615216758e-11	2.79889773385e-10	3.97203372992e+21	1.37243417857e-11	2.79889773385e-10
5	5.5959768905e+23	3.13171172335e-09	3.29094006959e-10	1.81586237465e+22	5.53189442225e-11	3.29094006959e-10	5.52327504566e+21	1.40480022719e-11	3.29094006959e-10
6	8.18798675163e+23	3.35748974783e-09	3.86948276483e-10	2.63581592131e+22	5.86998669276e-11	3.86948276483e-10	7.68966701907e+21	1.44087297333e-11	3.86948276483e-10
7	1.20114849226e+24	3.61300746285e-09	4.54973246265e-10	3.82561351817e+22	6.23152189255e-11	4.54973246265e-10	1.0718888999e+22	1.48092159526e-11	4.54973246265e-10
8	1.76657879879e+24	3.90293544248e-09	5.34956911293e-10	5.55081396639e+22	6.61757820432e-11	5.34956911293e-10	1.49595608352e+22	1.52522360611e-11	5.34956911293e-10
9	2.604821245e+24	4.23280116474e-09	6.29001593587e-10	8.04994982069e+22	7.02920930949e-11	6.29001593587e-10	2.09025893581e+22	1.57406362654e-11	6.29001593587e-10
10	3.85049085363e+24	4.60916723351e-09	7.3957920046e-10	1.16658785566e+23	7.4674348061e-11	7.3957920046e-10	2.92393336821e+22	1.62773202112e-11	7.3957920046e-10
11	5.70590184473e+24	5.03985056827e-09	8.695961971e-10	1.68900765843e+23	7.93323137912e-11	8.695961971e-10	4.0943258787e+22	1.68652347515e-11	8.695961971e-10
12	8.47560360061e+24	5.53419271025e-09	1.02247000124e-09	2.44248886463e+23	8.42752387362e-11	1.02247000124e-09	5.73842484119e+22	1.75073557925e-11	1.02247000124e-09
13	1.26186741233e+25	6.10339408689e-09	1.2022188079e-09	3.5270515322e+23	8.9511815709e-11	1.2022188079e-09	8.04880926176e+22	1.82066758969e-11	1.2022188079e-09
14	1.88278926316e+25	6.76092831031e-09	1.41356720522e-09	5.0845758145e+23	9.50501743214e-11	1.41356720522e-09	1.12958069009e+23	1.89661955183e-11	1.41356720522e-09
15	2.81495339829e+25	7.5230567635e-09	1.66207035736e-09	7.31543728113e+23	1.00897929531e-10	1.66207035736e-09	1.58581233319e+23	1.97889201491e-11	1.66207035736e-09
16	4.2164409203e+25	8.40946884204e-09	1.95426001864e-09	1.09933141022e+24	1.12187835578e-10	1.95426001864e-09	2.22649242892e+23	2.06778664128e-11	1.95426001864e-09
17	6.32609447928e+25	9.44407946873e-09	2.2978162167e-09	3.00510900544e+24	2.29335057253e-10	2.2978162167e-09	3.12532393168e+23	2.16360808672e-11	2.2978162167e-09
18	9.50459670165e+25	1.06560230086e-08	2.70176911741e-09	6.51110217179e+24	3.70154291682e-10	2.70176911741e-09	4.38456001593e+23	2.26666759378e-11	2.70176911741e-09
19	1.42960329508e+26	1.20808915347e-08	3.17673637723e-09	1.27496958329e+25	5.40513776118e-10	3.17673637723e-09	6.14539920281e+23	2.37728882688e-11	3.17673637723e-09
20	2.15196985744e+26	1.37622752662e-08	3.7352022219e-09	2.37461738075e+25	7.52589140576e-10	3.7352022219e-09	8.60173752488e+23	2.49581654e-11	3.7352022219e-09
21	3.24061341518e+26	1.57536735161e-08	4.39184558671e-09	4.26871834048e+25	1.01465873892e-09	4.39184558671e-09	1.20181022711e+24	2.62262873085e-11	4.39184558671e-09
22	4.87970439216e+26	1.81208544108e-08	5.1639259434e-09	7.46045981988e+25	1.33510576698e-09	5.1639259434e-09	1.67526350847e+24	2.7581529673e-11	5.1639259434e-09
23	7.34360300987e+26	2.09447489583e-08	6.07173695487e-09	1.27321332775e+26	1.72310597836e-09	6.07173695487e-09	2.32859206411e+24	2.90288756288e-11	6.07173695487e-09
24	1.10385782111e+27	2.43249662691e-08	7.13913988179e-09	2.12791378601e+26	2.188954338e-09	7.13913988179e-09	3.22561805142e+24	3.05742821175e-11	7.13913988179e-09
25	1.65616581239e+27	2.83840065814e-08	8.39419076133e-09	3.48956800421e+26	2.7443495816e-09	8.39419076133e-09	4.45007404793e+24	3.22250053883e-11	8.39419076133e-09
26	2.47818399687e+27	3.32722196524e-08	9.86987784303e-09	5.62247618964e+26	3.40272040272e-09	9.86987784303e-09	6.11025594846e+24	3.39899875445e-11	9.86987784303e-09
27	3.69489784255e+27	3.91734986382e-08	1.16049886649e-08	8.90831620608e+26	4.17963445027e-09	1.16049886649e-08	8.34387659082e+24	3.58803019352e-11	1.16049886649e-08
28	5.48342791484e+27	4.63116038219e-08	1.36451295603e-08	1.38866034213e+27	5.09332233429e-09	1.36451295603e-08	1.13225351617e+25	3.79096494462e-11	1.36451295603e-08
29	8.09021435582e+27	5.49568699694e-08	1.60439243927e-08	2.1302303958e+27	6.16534736279e-09	1.60439243927e-08	1.52548239042e+25	4.0094889977e-11	1.60439243927e-08
30	1.18504366856e+28	6.54328701243e-08	1.88644240262e-08	3.21575807014e+27	7.42145132275e-09	1.88644240262e-08	2.03865833238e+25	4.24565838368e-11	1.88644240262e-08
31	1.72072439938e+28	7.81147254354e-08	2.21807635795e-08	4.77612436637e+27	8.89260510314e-09	2.21807635795e-08	2.69962224212e+25	4.50195066167e-11	2.21807635795e-08
32	2.47260706882e+28	9.34623301448e-08	2.60801110219e-08	6.97647583893e+27	1.06162893151e-08	2.60801110219e-08	3.53824372835e+25	4.78130891973e-11	2.60801110219e-08
33	3.50963525203e+28	1.11982371431e-07	3.0664958331e-08	1.00167849373e+28	1.26380241435e-08	3.0664958331e-08	4.58412830155e+25	5.08717239083e-11	3.0664958331e-08
34	4.91099261268e+28	1.34253515976e-07	3.60558154317e-08	1.41270602824e+28	1.50131598816e-08	3.60558154317e-08	5.86296972862e+25	5.42348709417e-11	3.60558154317e-08
35	6.76035693764e+28	1.60917842554e-07	4.23943777262e-08	1.95544147979e+28	1.78089313224e-08	4.23943777262e-08	7.39136748396e+25	5.79469002436e-11	4.23943777262e-08
36	9.13544560304e+28	1.92677476491e-07	4.98472504719e-08	2.65391121944e+28	2.11067725173e-08	4.98472504719e-08	9.17018248359e+25	6.20566174545e-11	4.98472504719e-08
37	1.20923820121e+29	2.30293302885e-07	5.8610327899e-08	3.52773787606e+28	2.50048862966e-08	5.8610327899e-08	1.11769324235e+26	6.66164522446e-11	5.8610327899e-08
38	1.56456903748e+29	2.74589840294e-07	6.89139421715e-08	4.58705828799e+28	2.96210685257e-08	6.89139421715e-08	1.33583149562e+26	7.16813346282e-11	6.89139421715e-08
39	1.97464974296e+29	3.26470673171e-07	8.1028917528e-08	5.82636502785e+28	3.50958032939e-08	8.1028917528e-08	1.56245924971e+26	7.73073455625e-11	8.1028917528e-08
40	2.42633489536e+29	3.86947841889e-07	9.52736887323e-08	7.21802925271e+28	4.15956738555e-08	9.52736887323e-08	1.78480725525e+26	8.35502914529e-11	9.52736887323e-08
41	2.89712916938e+29	4.57186349005e-07	1.12022670937e-07	8.7068199137e+28	4.93171750426e-08	1.12022670937e-07	1.98679874925e+26	9.04644009633e-11	1.12022670937e-07
42	3.3554916624e+29	5.38562193725e-07	1.31716100961e-07	1.02072390853e+29	5.8491063405e-08	1.31716100961e-07	2.15034378394e+26	9.81013580517e-11	1.31716100961e-07
43	3.76295751995e+29	6.32730191384e-07	1.54871608641e-07	1.16057217768e+29	6.938743623e-08	1.54871608641e-07	2.25745715366e+26	1.06509853731e-10	1.54871608641e-07
44	4.07819993623e+29	7.41697150198e-07	1.82097822422e-07	1.27694295238e+29	8.23217826363e-08	1.82097822422e-07	2.29299586784e+26	1.15735758852e-10	1.82097822422e-07
45	4.26273974225e+29	8.67896961484e-07	2.14110366787e-07	1.35622747256e+29	9.76622913633e-08	2.14110366787e-07	2.24756601719e+26	1.25822904179e-10	2.14110366787e-07
46	4.28753025189e+29	1.01426631073e-06	2.51750672006e-07	1.38669145107e+29	1.15838724614e-07	2.51750672006e-07	2.11995503253e+26	1.36814327084e-10	2.51750672006e-07
47	4.13918893081e+29	1.18432221719e-06	2.96008090625e-07	1.36090651737e+29	1.37353173315e-07	2.96008090625e-07	1.91839198405e+26	1.48753735982e-10	2.96008090625e-07
48	3.8243536915e+29	1.38222603088e-06	3.48045901992e-07	1.2778348892e+29	1.62795055287e-07	3.48045901992e-07	1.66009394442e+26	1.61686879401e-10	3.48045901992e-07
49	3.3706925631e+29	1.61286385767e-06	4.0923188835e-07	1.14390277742e+29	1.92858829454e-07	4.0923188835e-07	1.36893160957e+26	1.75662499755e-10	4.0923188835e-07
50	2.82364838817e+29	1.88205116634e-06	4.81174286161e-07	9.72534618193e+28	2.28349791456e-07	4.81174286161e-07	1.0715675173e+26	1.90732600163e-10	4.81174286161e-07
51	2.23906444059e+29	2.19655751673e-06	5.65764057626e-07	7.82005793381e+28	2.70161104848e-07	5.65764057626e-07	7.92924566967e+25	2.06951838875e-10	5.65764057626e-07
52	1.67316309598e+29	2.56429395036e-06	6.65224593474e-07	5.92016883538e+28	3.19481872123e-07	6.65224593474e-07	5.52129573973e+25	2.24375963022e-10	6.65224593474e-07
53	1.17243526332e+29	2.99449954556e-06	7.82170153437e-07	4.19893260861e+28	3.77587908515e-07	7.82170153437e-07	3.59990664705e+25	2.43059272813e-10	7.82170153437e-07
54	7.66279296009e+28	3.4979648316e-06	9.19674580479e-07	2.77526403062e+28	4.46011779513e-07	9.19674580479e-07	2.18592000132e+25	2.6305114757e-10	9.19674580479e-07
55	4.64406658219e+28	4.08729684526e-06	1.08135209489e-06	1.69947471178e+28	5.26551533426e-07	1.08135209489e-06	1.22889272968e+25	2.84391658506e-10	1.08135209489e-06
56	2.59342615328e+28	4.7772309082e-06	1.27145229187e-06	9.58172787421e+27	6.21315589756e-07	1.27145229187e-06	6.35550753691e+24	3.07106248671e-10	1.27145229187e-06
57	1.32536634649e+28	5.5849950474e-06	1.49497183955e-06	4.94012802473e+27	7.32775026991e-07	1.49497183955e-06	3.00276531158e+24	3.31199399213e-10	1.49497183955e-06
58	6.15264980282e+27	6.53073435878e-06	1.75778581338e-06	2.31206032337e+27	8.63824551641e-07	1.75778581338e-06	1.28630858437e+24	3.56647149822e-10	1.75778581338e-06
59	2.57375175437e+27	7.63800440766e-06	2.06680211894e-06	9.74458517423e+26	1.01785361472e-06	2.06680211894e-06	4.95516204394e+23	3.83388324928e-10	2.06680211894e-06
60	9.61786955334e+26	8.93434482204e-06	2.43014306199e-06	3.66675240732e+26	1.19882935753e-06	2.43014306199e-06	1.70134156692e+23	4.11314354514e-10	2.43014306199e-06
61	3.18068840578e+26	1.04519464757e-05	2.85735883838e-06	1.22038206695e+26	1.411393332e-06	2.85735883838e-06	5.15642856293e+22	4.40257682371e-10	2.85735883838e-06
62	9.21474500177e+25	1.22284280891e-05	3.35967855513e-06	3.55642969889e+25	1.66097426404e-06	3.35967855513e-06	1.36513904359e+22	4.69978935766e-10	3.35967855513e-06
63	2.3131076765e+25	1.43077407888e-05	3.95030538068e-06	8.97602494881e+24	1.95391952071e-06	3.95030538068e-06	3.12130187131e+21	5.00153299702e-10	3.95030538068e-06
64	4.97164177315e+24	1.67412222931e-05	4.64476358217e-06	1.93892926172e+24	2.29764840882e-06	4.64476358217e-06	6.08790875546e+20	5.30356906889e-10	4.64476358217e-06
65	9.03263919212e+23	1.95888260316e-05	5.46130657132e-06	3.5390096475e+23	2.70083097913e-06	5.46130657132e-06	9.99455152641e+19	5.6005452522e-10	5.46130657132e-06
66	1.36805173894e+23	2.29205547218e-05	6.42139668431e-06	5.38293132273e+22	3.17359663773e-06	6.42139668431e-06	1.36119232342e+19	5.88590384319e-10	6.42139668431e-06
67	1.70148985982e+22	2.68181326878e-05	7.55026930621e-06	6.72127185365e+21	3.72777757052e-06	7.55026930621e-06	1.51391833664e+18	6.1518458553e-10	7.55026930621e-06
68	1.70970858538e+21	3.13769564076e-05	8.87759616777e-06	6.77825407985e+20	4.37719275211e-06	8.87759616777e-06	1.35176365926e+17	6.38938091233e-10	8.87759616777e-06
69	1.36370802866e+20	3.6708368218e-05	1.04382652488e-05	5.42461780762e+19	5.13797910925e-06	1.04382652488e-05	9.51211841752e+15	6.58849636151e-10	1.04382652488e-05
70	8.47090588399e+18	4.29423034937e-05	1.22732977875e-05	3.38000706612e+18	6.02897719744e-06	1.22732977875e-05	5.1703056833e+14	6.73847833753e-10	1.22732977875e-05
71	4.01379179196e+17	5.02303666101e-05	1.44309264988e-05	1.60612568324e+17	7.07217947864e-06	1.44309264988e-05	2.12405800296e+13	6.82841019292e-10	1.44309264988e-05
72	1.4185539605e+16	5.87493953056e-05	1.6967863342e-05	5.69131526499e+15	8.2932499112e-06	1.6967863342e-05	644137760864.0	6.8478575527e-10	1.6967863342e-05
73	3.64943847751e+14	6.87055765402e-05	1.995079016e-05	1.46773506866e+14	9.72212406214e-06	1.995079016e-05	14055282398.3	6.78772317065e-10	1.995079016e-05
74	6.65606470407e+12	8.03391798003e-05	2.34581113713e-05	2.68295704553e+12	1.13936993524e-05	2.34581113713e-05	214633370.417	6.64121992991e-10	2.34581113713e-05
75	83629717164.2	9.39299765953e-05	2.75820147821e-05	33779832655.9	1.33486254331e-05	2.75820147821e-05	2225785.75693	6.40487107186e-10	2.75820147821e-05
76	701659857.696	0.000109803418503	3.24308946871e-05	283959343.441	1.56342051964e-05	3.24308946871e-05	15171.4447878	6.07941073262e-10	3.24308946871e-05
77	3800355.83828	0.000128337651415	3.81322009474e-05	1540720.3082	1.83054176787e-05	3.81322009474e-05	65.6087072369	5.67043512039e-10	3.81322009474e-05
78	12808.5342015	0.000149971450956	4.48357889328e-05	5201.29186028	2.14260751764e-05	4.48357889328e-05	0.173230404453	5.18865516701e-10	4.48357889328e-05
79	25.8123772689	0.000185727333725	5.27178583791e-05	10.4978106334	2.5070128166e-05	5.27178583791e-05	0.000267883731555	4.64963207153e-10	5.27178583791e-05
