0-group 1-eemit(erg/ccm/s) 2-eabs(1/cm) 3-escat(1/cm) 4-aemit(erg/ccm/s) 5-aabs(1/cm) 6-ascat(1/cm) 7-hemit(erg/ccm/s) 8-habs(1/cm) 9-hscat(1/cm)
0	6.47688763724e+26	3.1612759664e-06	6.76327343983e-09	3.36425917628e+26	5.94379194025e-06	6.76327343983e-09	5.12375774346e+26	3.86225497993e-06	6.76327343983e-09
1	3.44889866311e+26	2.9480376889e-06	2.93348187501e-08	1.79445081004e+26	5.61422438986e-06	2.93348187501e-08	2.70478958826e+26	3.58796693408e-06	2.93348187501e-08
2	4.72646516527e+26	2.92468098569e-06	3.44918391591e-08	2.45483219446e+26	5.57385348511e-06	3.44918391591e-08	3.69459998012e+26	3.55211401265e-06	3.44918391591e-08
3	6.47543942615e+26	2.90089057278e-06	4.05554565963e-08	3.35599520729e+26	5.53141746898e-06	4.05554565963e-08	5.04280244089e+26	3.51452911142e-06	4.05554565963e-08
4	8.86928594154e+26	2.87676359239e-06	4.76850495604e-08	4.58470315e+26	5.48683741402e-06	4.76850495604e-08	6.87742790313e+26	3.47515466105e-06	4.76850495604e-08
5	1.21453011249e+27	2.8524206621e-06	5.60680150692e-08	6.25851626943e+26	5.44003557585e-06	5.60680150692e-08	9.37146276224e+26	3.43393515305e-06	5.60680150692e-08
6	1.66282376699e+27	2.82800989849e-06	6.59246942759e-08	8.53651237073e+26	5.39093608928e-06	6.59246942759e-08	1.27582849473e+27	3.39081779309e-06	6.59246942759e-08
7	2.27628142171e+27	2.80371156423e-06	7.75141640026e-08	1.16336449608e+27	5.33946572169e-06	7.75141640026e-08	1.73522456674e+27	3.3457531955e-06	7.75141640026e-08
8	3.11585629518e+27	2.77974344614e-06	9.11410464168e-08	1.58399312456e+27	5.28555468588e-06	9.11410464168e-08	2.3576044347e+27	3.29869611857e-06	9.11410464168e-08
9	4.26518847507e+27	2.75636709276e-06	1.0716351584e-07	2.15460346765e+27	5.22913751441e-06	1.0716351584e-07	3.19970421822e+27	3.24960624039e-06	1.0716351584e-07
10	5.83922262868e+27	2.73389506547e-06	1.26002713144e-07	2.92772873382e+27	5.17015399803e-06	1.26002713144e-07	4.33752953075e+27	3.19844897474e-06	1.26002713144e-07
11	7.99622697905e+27	2.71269938757e-06	1.48153815178e-07	3.97388142292e+27	5.10855019006e-06	1.48153815178e-07	5.87268941668e+27	3.14519632614e-06	1.48153815178e-07
12	1.09546397126e+28	2.693221413e-06	1.74199050195e-07	5.38752080115e+27	5.04427947829e-06	1.74199050195e-07	7.94072088991e+27	3.08982778215e-06	1.74199050195e-07
13	1.5016816725e+28	2.67598338127e-06	2.04823001369e-07	7.29491988014e+27	4.97730372487e-06	2.04823001369e-07	1.07219903563e+28	3.03233124023e-06	2.04823001369e-07
14	2.06027231407e+28	2.66160198014e-06	2.40830600642e-07	9.86450149385e+27	4.90759447341e-06	2.40830600642e-07	1.44559140464e+28	2.97270396461e-06	2.40830600642e-07
15	2.82980718481e+28	2.65080430566e-06	2.83168285876e-07	1.3320368898e+28	4.83513422106e-06	2.83168285876e-07	1.94594296146e+28	2.91095356699e-06	2.83168285876e-07
16	3.89236338186e+28	2.64444669255e-06	3.32948877394e-07	1.79622177239e+28	4.76052549165e-06	3.32948877394e-07	2.6150879555e+28	2.84709900287e-06	3.32948877394e-07
17	5.3635849385e+28	2.64353699244e-06	3.91480827788e-07	2.42475213242e+28	4.69576721965e-06	3.91480827788e-07	3.50807372571e+28	2.78117157268e-06	3.91480827788e-07
18	7.40741234412e+28	2.64926100734e-06	4.60302613797e-07	3.27021944535e+28	4.63150188437e-06	4.60302613797e-07	4.69709194277e+28	2.71321591455e-06	4.60302613797e-07
19	1.02578346404e+29	2.66301394916e-06	5.41223174238e-07	4.40705749079e+28	4.56870886552e-06	5.41223174238e-07	6.27647815823e+28	2.64329097228e-06	5.41223174238e-07
20	1.42512923435e+29	2.68643800237e-06	6.36369456858e-07	5.93644419878e+28	4.5092185283e-06	6.36369456858e-07	8.36902778036e+28	2.57147091945e-06	6.36369456858e-07
21	1.98753585572e+29	2.72146732902e-06	7.48242323865e-07	7.99516754137e+28	4.45453071887e-06	7.48242323865e-07	1.11339164547e+29	2.49784601735e-06	7.48242323865e-07
22	2.78424752868e+29	2.77038218949e-06	8.79782285572e-07	1.07693269289e+29	4.40630411639e-06	8.79782285572e-07	1.47765510814e+29	2.42252338097e-06	8.79782285572e-07
23	3.92025014015e+29	2.83587428271e-06	1.03444678992e-06	1.45135460258e+29	4.36646126068e-06	1.03444678992e-06	1.95607095778e+29	2.3456276248e-06	1.03444678992e-06
24	5.5515723296e+29	2.92112596525e-06	1.21630109941e-06	1.95784765331e+29	4.33725329155e-06	1.21630109941e-06	2.58233458832e+29	2.26730135677e-06	1.21630109941e-06
25	7.9120524505e+29	3.02990673245e-06	1.43012514402e-06	2.64505932382e+29	4.32132086469e-06	1.43012514402e-06	3.39924314834e+29	2.18770548646e-06	1.43012514402e-06
26	1.1354988194e+30	3.16669129374e-06	1.68153915882e-06	3.58103045696e+29	4.32176006681e-06	1.68153915882e-06	4.46081620959e+29	2.10701931177e-06	1.68153915882e-06
27	1.6418269354e+30	3.33680482633e-06	1.97715140836e-06	4.86174764632e+29	4.34219698516e-06	1.97715140836e-06	5.83477599603e+29	2.02544034677e-06	1.97715140836e-06
28	2.39266743937e+30	3.54660265728e-06	2.32473188095e-06	6.62380910492e+29	4.38687341091e-06	2.32473188095e-06	7.60539255612e+29	1.94318385374e-06	2.32473188095e-06
29	3.5153122686e+30	3.8036938547e-06	2.73341651807e-06	9.06326626341e+29	4.46074600851e-06	2.73341651807e-06	9.87667100269e+29	1.86048204306e-06	2.73341651807e-06
30	5.20736282289e+30	4.11722122006e-06	3.21394734698e-06	1.24637236705e+30	4.56960150204e-06	3.21394734698e-06	1.27758159582e+30	1.77758290786e-06	3.21394734698e-06
31	7.77713866917e+30	4.49821426863e-06	3.77895482847e-06	1.72382713225e+30	4.7201908418e-06	3.77895482847e-06	1.64568493344e+30	1.69474866464e-06	3.77895482847e-06
32	1.17078446325e+31	4.96003739514e-06	4.44328984077e-06	2.39919746196e+30	4.9203858779e-06	4.44328984077e-06	2.11041784962e+30	1.61225377846e-06	4.44328984077e-06
33	1.77596073357e+31	5.51896316552e-06	5.22441402591e-06	3.36146997147e+30	5.17936278528e-06	5.22441402591e-06	2.69358105726e+30	1.53038256066e-06	5.22441402591e-06
34	2.71318801644e+31	6.19491144073e-06	6.1428587583e-06	4.74183010157e+30	5.50781737577e-06	6.1428587583e-06	3.42057849344e+30	1.44942633968e-06	6.1428587583e-06
35	4.17220525068e+31	7.01241010748e-06	7.22276479953e-06	6.73379748999e+30	5.91821852832e-06	7.22276479953e-06	4.32052526854e+30	1.36968022108e-06	7.22276479953e-06
36	6.45372538209e+31	8.00185442009e-06	8.4925168235e-06	9.62252135406e+30	6.42510730296e-06	8.4925168235e-06	5.42614774149e+30	1.29143947137e-06	8.4925168235e-06
37	1.00349790822e+32	9.20117204072e-06	9.98548949042e-06	1.38269498867e+31	7.04545091676e-06	9.98548949042e-06	6.77338804881e+30	1.21499558191e-06	9.98548949042e-06
38	1.56739316366e+32	1.06580437082e-05	1.17409246794e-05	1.99597613481e+31	7.79906269084e-06	1.17409246794e-05	8.40061309716e+30	1.14063209335e-06	1.17409246794e-05
39	2.4574727261e+32	1.24328907151e-05	1.38049629374e-05	2.89112618688e+31	8.70910136278e-06	1.38049629374e-05	1.03473219879e+31	1.06862028678e-06	1.38049629374e-05
40	3.86497260551e+32	1.46029281378e-05	1.62318562556e-05	4.19647590025e+31	9.80266583034e-06	1.62318562556e-05	1.26522507137e+31	9.99214875182e-07	1.62318562556e-05
41	6.09332056878e+32	1.72677085465e-05	1.90853940497e-05	6.09518961325e+31	1.11115044685e-05	1.90853940497e-05	1.5350794362e+31	9.3264985447e-07	1.90853940497e-05
42	9.62316978922e+32	2.05567606523e-05	2.24405798263e-05	8.84565315073e+31	1.26728616465e-05	2.24405798263e-05	1.84717110332e+31	8.69134697582e-07	2.24405798263e-05
43	1.52140416632e+33	2.46401823248e-05	2.63856026042e-05	1.28074096994e+32	1.45304879476e-05	2.63856026042e-05	2.20331437113e+31	8.08851093611e-07	2.63856026042e-05
44	2.40619591286e+33	2.97434041234e-05	3.10241549093e-05	1.84728712259e+32	1.67358448251e-05	3.10241549093e-05	2.60380995835e+31	7.51950444819e-07	3.10241549093e-05
45	3.80413715512e+33	3.61678265834e-05	3.64781582698e-05	2.65040987291e+32	1.93495389554e-05	3.64781582698e-05	3.04696592996e+31	6.98552333615e-07	3.64781582698e-05
46	6.00711951568e+33	4.43196723121e-05	4.28909678489e-05	3.77723451644e+32	2.24430263172e-05	4.28909678489e-05	3.52863421627e+31	6.48744154914e-07	4.28909678489e-05
47	9.46578324143e+33	5.4750167998e-05	5.04311404487e-05	5.33955989851e+32	2.61006309889e-05	5.04311404487e-05	4.04182072078e+31	6.02582071779e-07	5.04311404487e-05
48	1.48678547753e+34	6.82109738555e-05	5.92968649231e-05	7.47659401599e+32	3.04219288251e-05	5.92968649231e-05	4.576439125e+31	5.60093387428e-07	5.92968649231e-05
49	2.32466257248e+34	8.57292916187e-05	6.97211714513e-05	1.03554209054e+33	3.55245516686e-05	6.97211714513e-05	5.11928267945e+31	5.21280327238e-07	6.97211714513e-05
50	3.61219628606e+34	0.000108706578569	8.19780565945e-05	1.41674748669e+33	4.15474738477e-05	8.19780565945e-05	5.65427903186e+31	4.86125081562e-07	8.19780565945e-05
51	5.56649824217e+34	0.000139041848607	9.63896851289e-05	1.91188849711e+33	4.86548499308e-05	9.63896851289e-05	6.16306542819e+31	4.54595766117e-07	9.63896851289e-05
52	8.48525128467e+34	0.000179272797407	0.000113334857951	2.54123808875e+33	5.70404818574e-05	0.000113334857951	6.62587317597e+31	4.26599550555e-07	0.000113334857951
53	1.27532058875e+35	0.000232682218936	0.00013325896863	3.3218782086e+33	6.69330058141e-05	0.00013325896863	7.02264522669e+31	4.02202131547e-07	0.00013325896863
54	1.88252229317e+35	0.00030349317295	0.000156685710304	4.2637243024e+33	7.86019060758e-05	0.000156685710304	7.33424391743e+31	3.81309751121e-07	0.000156685710304
55	2.71650715952e+35	0.000396675870756	0.000184230840639	5.3645689473e+33	9.23644863351e-05	0.000184230840639	7.54356546934e+31	3.63885911421e-07	0.000184230840639
56	3.81200176952e+35	0.000517785655508	0.000216618366645	6.60463759477e+33	0.000108593960717	0.000216618366645	7.6364013584e+31	3.49894657985e-07	0.000216618366645
57	5.17303178473e+35	0.000672428006421	0.000254699574757	7.94159578336e+33	0.0001277288683	0.000254699574757	7.60200301382e+31	3.39294089009e-07	0.000254699574757
58	6.75169964129e+35	0.00086557791958	0.000299475406386	9.30740307995e+33	0.000150264892289	0.000299475406386	7.43349981693e+31	3.32027638293e-07	0.000299475406386
59	8.43451574533e+35	0.00110101094238	0.000352122767049	1.06087132839e+34	0.000176842321948	0.000352122767049	7.12849486064e+31	3.28016532841e-07	0.000352122767049
60	1.00476588261e+36	0.00138122634553	0.000414025460624	1.1732452466e+34	0.000208153162668	0.000414025460624	6.69015591068e+31	3.27157639859e-07	0.000414025460624
61	1.13860104478e+36	0.00170809010081	0.000486810561786	1.25575454663e+34	0.000245028723108	0.000486810561786	6.12881402862e+31	3.29329579231e-07	0.000486810561786
62	1.22583266014e+36	0.00208404698294	0.000572391182681	1.29723966184e+34	0.000288443988214	0.000572391182681	5.46356614638e+31	3.34406578226e-07	0.000572391182681
63	1.2531864781e+36	0.00251343449424	0.000673016757912	1.28957978576e+34	0.000339542629861	0.000673016757912	4.72296375724e+31	3.42275971768e-07	0.000673016757912
64	1.21612274151e+36	0.00300344192575	0.000791332169565	1.22969217816e+34	0.000399666473326	0.000791332169565	3.94388453203e+31	3.52853809528e-07	0.000791332169565
65	1.11951502601e+36	0.00356442186527	0.000930447266322	1.12087647273e+34	0.00047037269663	0.000930447266322	3.16819991184e+31	3.66080986423e-07	0.000930447266322
66	9.76331888032e+35	0.00421015267217	0.00109401860395	9.72972559966e+33	0.000553509086831	0.00109401860395	2.43764150399e+31	3.81956041275e-07	0.00109401860395
67	8.04897952099e+35	0.00495763387291	0.00128634555563	8.01047224473e+33	0.000651241459277	0.00128634555563	1.78798328641e+31	4.00510928939e-07	0.00128634555563
68	6.25378647766e+35	0.00582696676296	0.0015124833184	6.227548403e+33	0.000766105962723	0.0015124833184	1.24401511036e+31	4.21800873388e-07	0.0015124833184
69	4.56173679097e+35	0.00684151011874	0.00177837578591	4.54994201787e+33	0.000901076785374	0.00177837578591	8.16652584912e+30	4.45896872108e-07	0.00177837578591
70	3.10960487834e+35	0.00802821435206	0.00209101178005	3.10800156091e+33	0.00105964093588	0.00209101178005	5.02934495814e+30	4.72874077968e-07	0.00209101178005
71	1.97051600585e+35	0.00941816866264	0.00245860874791	1.9738524385e+33	0.00124588544862	0.00245860874791	2.88786301463e+30	5.02800202749e-07	0.00245860874791
72	1.15398123948e+35	0.011047342428	0.00289082875237	1.15844997144e+33	0.00146459907508	0.00289082875237	1.5358944287e+30	5.35723998525e-07	0.00289082875237
73	6.20511376005e+34	0.0129575017876	0.00339903243353	6.24199559695e+32	0.00172139086642	0.00339903243353	7.51238512457e+29	5.71663428777e-07	0.00339903243353
74	3.04204665562e+34	0.0151972907101	0.00399657761627	3.06600951269e+32	0.00202282844185	0.00399657761627	3.35354557241e+29	6.10592908527e-07	0.00399657761627
75	1.34932532295e+34	0.0178234787076	0.00469917041253	1.36236866105e+32	0.00237659918657	0.00469917041253	1.35508160844e+29	6.52428944924e-07	0.00469917041253
76	5.37024054848e+33	0.020902391632	0.00552527804692	5.43101048338e+31	0.00279169814793	0.00552527804692	4.91260392953e+28	6.9701361187e-07	0.00552527804692
77	1.90060294298e+33	0.024511555082	0.0064966142565	1.92499494326e+31	0.00327864702214	0.0064966142565	1.58268473913e+28	7.44095515969e-07	0.0064966142565
78	5.92357552563e+32	0.0287415905574	0.00763871002317	6.00786234521e+30	0.00384974936664	0.00763871002317	4.48475915164e+27	7.93308244157e-07	0.00763871002317
79	1.60879236358e+32	0.033698412814	0.00898158463998	1.63374608899e+30	0.00451938805903	0.00898158463998	1.10539258197e+27	8.44146734065e-07	0.00898158463998
